-2.40479E+02	 1.28350E+03
-2.36367E+02	 1.26100E+03
-2.32256E+02	 1.25950E+03
-2.28147E+02	 1.25450E+03
-2.24040E+02	 1.25150E+03
-2.19934E+02	 1.26150E+03
-2.15830E+02	 1.25550E+03
-2.11727E+02	 1.26200E+03
-2.07627E+02	 1.25750E+03
-2.03527E+02	 1.26550E+03
-1.99430E+02	 1.25650E+03
-1.95333E+02	 1.25250E+03
-1.91239E+02	 1.25300E+03
-1.87146E+02	 1.27450E+03
-1.83055E+02	 1.26050E+03
-1.78965E+02	 1.27550E+03
-1.74877E+02	 1.26400E+03
-1.70791E+02	 1.29650E+03
-1.66706E+02	 1.28000E+03
-1.62623E+02	 1.25450E+03
-1.58542E+02	 1.27600E+03
-1.54462E+02	 1.27450E+03
-1.50383E+02	 1.28000E+03
-1.46307E+02	 1.26650E+03
-1.42231E+02	 1.27400E+03
-1.38158E+02	 1.25550E+03
-1.34086E+02	 1.27250E+03
-1.30016E+02	 1.27350E+03
-1.25947E+02	 1.26550E+03
-1.21880E+02	 1.26350E+03
-1.17815E+02	 1.25400E+03
-1.13751E+02	 1.25600E+03
-1.09689E+02	 1.25450E+03
-1.05628E+02	 1.26100E+03
-1.01569E+02	 1.26100E+03
-9.75113E+01	 1.26000E+03
-9.34554E+01	 1.25950E+03
-8.94012E+01	 1.28950E+03
-8.53485E+01	 1.27750E+03
-8.12974E+01	 1.27650E+03
-7.72479E+01	 1.28700E+03
-7.32000E+01	 1.27200E+03
-6.91537E+01	 1.28700E+03
-6.51090E+01	 1.27700E+03
-6.10659E+01	 1.27650E+03
-5.70243E+01	 1.26050E+03
-5.29844E+01	 1.26800E+03
-4.89460E+01	 1.27950E+03
-4.49093E+01	 1.27800E+03
-4.08741E+01	 1.28200E+03
-3.68405E+01	 1.29850E+03
-3.28084E+01	 1.28600E+03
-2.87780E+01	 1.30350E+03
-2.47491E+01	 1.29000E+03
-2.07219E+01	 1.29100E+03
-1.66962E+01	 1.33100E+03
-1.26721E+01	 1.77000E+03
-8.64951E+00	 4.04600E+03
-4.62855E+00	 7.39100E+03
-6.09165E-01	 6.03350E+03
 3.40865E+00	 2.53250E+03
 7.42488E+00	 1.44150E+03
 1.14395E+01	 1.30700E+03
 1.54526E+01	 1.29550E+03
 1.94642E+01	 1.30400E+03
 2.34741E+01	 1.31300E+03
 2.74825E+01	 1.28900E+03
 3.14893E+01	 1.29850E+03
 3.54945E+01	 1.27650E+03
 3.94982E+01	 1.29900E+03
 4.35003E+01	 1.27900E+03
 4.75008E+01	 1.29200E+03
 5.14998E+01	 1.28400E+03
 5.54972E+01	 1.29000E+03
 5.94931E+01	 1.27400E+03
 6.34874E+01	 1.29500E+03
 6.74801E+01	 1.29700E+03
 7.14713E+01	 1.34950E+03
 7.54609E+01	 1.51000E+03
 7.94489E+01	 1.56750E+03
 8.34354E+01	 1.54400E+03
 8.74204E+01	 1.45050E+03
 9.14037E+01	 1.43400E+03
 9.53856E+01	 1.40800E+03
 9.93658E+01	 1.36200E+03
 1.03345E+02	 1.38350E+03
 1.07322E+02	 1.35400E+03
 1.11297E+02	 1.37200E+03
 1.15271E+02	 1.36500E+03
 1.19244E+02	 1.34850E+03
 1.23215E+02	 1.33050E+03
 1.27184E+02	 1.36400E+03
 1.31152E+02	 1.36450E+03
 1.35118E+02	 1.37000E+03
 1.39083E+02	 1.33900E+03
 1.43047E+02	 1.36000E+03
 1.47008E+02	 1.35850E+03
 1.50968E+02	 1.34300E+03
 1.54927E+02	 1.36000E+03
 1.58884E+02	 1.34450E+03
 1.62840E+02	 1.37850E+03
 1.66794E+02	 1.38050E+03
 1.70746E+02	 1.36200E+03
 1.74697E+02	 1.37050E+03
 1.78646E+02	 1.38450E+03
 1.82594E+02	 1.38050E+03
 1.86540E+02	 1.37100E+03
 1.90485E+02	 1.37650E+03
 1.94428E+02	 1.39700E+03
 1.98370E+02	 1.37900E+03
 2.02310E+02	 1.39750E+03
 2.06249E+02	 1.40700E+03
 2.10186E+02	 1.39600E+03
 2.14122E+02	 1.38350E+03
 2.18056E+02	 1.40400E+03
 2.21988E+02	 1.40300E+03
 2.25919E+02	 1.40100E+03
 2.29849E+02	 1.40150E+03
 2.33777E+02	 1.41150E+03
 2.37703E+02	 1.41950E+03
 2.41628E+02	 1.40650E+03
 2.45552E+02	 1.39250E+03
 2.49473E+02	 1.38850E+03
 2.53394E+02	 1.40300E+03
 2.57313E+02	 1.42600E+03
 2.61230E+02	 1.39200E+03
 2.65146E+02	 1.41450E+03
 2.69060E+02	 1.41600E+03
 2.72973E+02	 1.39950E+03
 2.76884E+02	 1.37300E+03
 2.80794E+02	 1.39450E+03
 2.84702E+02	 1.37900E+03
 2.88609E+02	 1.39550E+03
 2.92514E+02	 1.39600E+03
 2.96418E+02	 1.41700E+03
 3.00320E+02	 1.42150E+03
 3.04221E+02	 1.40650E+03
 3.08120E+02	 1.40050E+03
 3.12017E+02	 1.39800E+03
 3.15914E+02	 1.40650E+03
 3.19808E+02	 1.42800E+03
 3.23701E+02	 1.39300E+03
 3.27593E+02	 1.37750E+03
 3.31483E+02	 1.40000E+03
 3.35372E+02	 1.37700E+03
 3.39259E+02	 1.39100E+03
 3.43145E+02	 1.41200E+03
 3.47029E+02	 1.39150E+03
 3.50911E+02	 1.43400E+03
 3.54793E+02	 1.42750E+03
 3.58672E+02	 1.41800E+03
 3.62550E+02	 1.47750E+03
 3.66427E+02	 1.64250E+03
 3.70302E+02	 2.11800E+03
 3.74176E+02	 2.82650E+03
 3.78048E+02	 2.60300E+03
 3.81919E+02	 1.89700E+03
 3.85788E+02	 1.56100E+03
 3.89656E+02	 1.45050E+03
 3.93522E+02	 1.46600E+03
 3.97387E+02	 1.46300E+03
 4.01250E+02	 1.60300E+03
 4.05112E+02	 2.10150E+03
 4.08972E+02	 3.79150E+03
 4.12831E+02	 5.88550E+03
 4.16688E+02	 5.15300E+03
 4.20544E+02	 3.02600E+03
 4.24398E+02	 2.28850E+03
 4.28251E+02	 2.03250E+03
 4.32103E+02	 1.78250E+03
 4.35952E+02	 1.55800E+03
 4.39801E+02	 1.50550E+03
 4.43648E+02	 1.51400E+03
 4.47493E+02	 1.52650E+03
 4.51337E+02	 1.47150E+03
 4.55180E+02	 1.44950E+03
 4.59021E+02	 1.40800E+03
 4.62861E+02	 1.39400E+03
 4.66699E+02	 1.42300E+03
 4.70535E+02	 1.42900E+03
 4.74370E+02	 1.43200E+03
 4.78204E+02	 1.38900E+03
 4.82036E+02	 1.42900E+03
 4.85867E+02	 1.39350E+03
 4.89696E+02	 1.39850E+03
 4.93524E+02	 1.43200E+03
 4.97351E+02	 1.41250E+03
 5.01176E+02	 1.41650E+03
 5.04999E+02	 1.43300E+03
 5.08821E+02	 1.40900E+03
 5.12641E+02	 1.40400E+03
 5.16460E+02	 1.45250E+03
 5.20278E+02	 1.43300E+03
 5.24094E+02	 1.42650E+03
 5.27909E+02	 1.44400E+03
 5.31722E+02	 1.43000E+03
 5.35534E+02	 1.41600E+03
 5.39344E+02	 1.44800E+03
 5.43153E+02	 1.46250E+03
 5.46960E+02	 1.42450E+03
 5.50766E+02	 1.45300E+03
 5.54571E+02	 1.44500E+03
 5.58374E+02	 1.44150E+03
 5.62175E+02	 1.45900E+03
 5.65975E+02	 1.50350E+03
 5.69774E+02	 1.62950E+03
 5.73571E+02	 1.72600E+03
 5.77367E+02	 1.59150E+03
 5.81162E+02	 1.49250E+03
 5.84954E+02	 1.46950E+03
 5.88746E+02	 1.43050E+03
 5.92536E+02	 1.43900E+03
 5.96324E+02	 1.45300E+03
 6.00111E+02	 1.46950E+03
 6.03897E+02	 1.47450E+03
 6.07681E+02	 1.48000E+03
 6.11464E+02	 1.43900E+03
 6.15246E+02	 1.46900E+03
 6.19025E+02	 1.46300E+03
 6.22804E+02	 1.51800E+03
 6.26581E+02	 1.58200E+03
 6.30357E+02	 1.70950E+03
 6.34131E+02	 2.03350E+03
 6.37903E+02	 2.51400E+03
 6.41675E+02	 2.70600E+03
 6.45445E+02	 2.43050E+03
 6.49213E+02	 1.99950E+03
 6.52980E+02	 1.69050E+03
 6.56746E+02	 1.61700E+03
 6.60510E+02	 1.52650E+03
 6.64272E+02	 1.53300E+03
 6.68034E+02	 1.51500E+03
 6.71793E+02	 1.50500E+03
 6.75552E+02	 1.50250E+03
 6.79309E+02	 1.48500E+03
 6.83064E+02	 1.47000E+03
 6.86819E+02	 1.44450E+03
 6.90571E+02	 1.44200E+03
 6.94323E+02	 1.44550E+03
 6.98073E+02	 1.43150E+03
 7.01821E+02	 1.43500E+03
 7.05568E+02	 1.45400E+03
 7.09314E+02	 1.46050E+03
 7.13058E+02	 1.44450E+03
 7.16801E+02	 1.48850E+03
 7.20542E+02	 1.48950E+03
 7.24282E+02	 1.48650E+03
 7.28021E+02	 1.50050E+03
 7.31758E+02	 1.56200E+03
 7.35493E+02	 1.65650E+03
 7.39228E+02	 1.74900E+03
 7.42961E+02	 1.93750E+03
 7.46692E+02	 2.07550E+03
 7.50422E+02	 1.97350E+03
 7.54151E+02	 1.78250E+03
 7.57878E+02	 1.71350E+03
 7.61604E+02	 1.62400E+03
 7.65328E+02	 1.59650E+03
 7.69051E+02	 1.56650E+03
 7.72773E+02	 1.55400E+03
 7.76493E+02	 1.56200E+03
 7.80212E+02	 1.51450E+03
 7.83929E+02	 1.52600E+03
 7.87645E+02	 1.54100E+03
 7.91360E+02	 1.53150E+03
 7.95073E+02	 1.51450E+03
 7.98785E+02	 1.53150E+03
 8.02495E+02	 1.53150E+03
 8.06204E+02	 1.54850E+03
 8.09912E+02	 1.53150E+03
 8.13618E+02	 1.52100E+03
 8.17323E+02	 1.52850E+03
 8.21026E+02	 1.53450E+03
 8.24728E+02	 1.54650E+03
 8.28429E+02	 1.51750E+03
 8.32128E+02	 1.51100E+03
 8.35826E+02	 1.54950E+03
 8.39523E+02	 1.50850E+03
 8.43218E+02	 1.52400E+03
 8.46911E+02	 1.55250E+03
 8.50604E+02	 1.48900E+03
 8.54295E+02	 1.48350E+03
 8.57984E+02	 1.49400E+03
 8.61672E+02	 1.46050E+03
 8.65359E+02	 1.47600E+03
 8.69044E+02	 1.48900E+03
 8.72728E+02	 1.46650E+03
 8.76411E+02	 1.49650E+03
 8.80092E+02	 1.47300E+03
 8.83772E+02	 1.47800E+03
 8.87450E+02	 1.49850E+03
 8.91128E+02	 1.50500E+03
 8.94803E+02	 1.48800E+03
 8.98478E+02	 1.48250E+03
 9.02150E+02	 1.47500E+03
 9.05822E+02	 1.49400E+03
 9.09492E+02	 1.47250E+03
 9.13161E+02	 1.44550E+03
 9.16828E+02	 1.41700E+03
 9.20495E+02	 1.45900E+03
 9.24159E+02	 1.44350E+03
 9.27823E+02	 1.45450E+03
 9.31484E+02	 1.45950E+03
 9.35145E+02	 1.46000E+03
 9.38804E+02	 1.46550E+03
 9.42462E+02	 1.44650E+03
 9.46119E+02	 1.50200E+03
 9.49774E+02	 1.46750E+03
 9.53427E+02	 1.46600E+03
 9.57080E+02	 1.45150E+03
 9.60731E+02	 1.47100E+03
 9.64380E+02	 1.46250E+03
 9.68029E+02	 1.47350E+03
 9.71676E+02	 1.46400E+03
 9.75321E+02	 1.45950E+03
 9.78965E+02	 1.44550E+03
 9.82608E+02	 1.47850E+03
 9.86250E+02	 1.46100E+03
 9.89890E+02	 1.46000E+03
 9.93529E+02	 1.45150E+03
 9.97166E+02	 1.44900E+03
 1.00080E+03	 1.46250E+03
 1.00444E+03	 1.46600E+03
 1.00807E+03	 1.45700E+03
 1.01170E+03	 1.45850E+03
 1.01533E+03	 1.44650E+03
 1.01896E+03	 1.45100E+03
 1.02259E+03	 1.45000E+03
 1.02622E+03	 1.46550E+03
 1.02984E+03	 1.44050E+03
 1.03347E+03	 1.46450E+03
 1.03709E+03	 1.45000E+03
 1.04071E+03	 1.46500E+03
 1.04433E+03	 1.49850E+03
 1.04795E+03	 1.47200E+03
 1.05156E+03	 1.46000E+03
 1.05518E+03	 1.44750E+03
 1.05880E+03	 1.46750E+03
 1.06241E+03	 1.47500E+03
 1.06602E+03	 1.46600E+03
 1.06963E+03	 1.46800E+03
 1.07324E+03	 1.46700E+03
 1.07685E+03	 1.45250E+03
 1.08045E+03	 1.44900E+03
 1.08406E+03	 1.46600E+03
 1.08766E+03	 1.46550E+03
 1.09126E+03	 1.45550E+03
 1.09487E+03	 1.47500E+03
 1.09847E+03	 1.46800E+03
 1.10206E+03	 1.46650E+03
 1.10566E+03	 1.46450E+03
 1.10926E+03	 1.47700E+03
 1.11285E+03	 1.45000E+03
 1.11644E+03	 1.47450E+03
 1.12004E+03	 1.47300E+03
 1.12363E+03	 1.43550E+03
 1.12722E+03	 1.48050E+03
 1.13080E+03	 1.47300E+03
 1.13439E+03	 1.47200E+03
 1.13797E+03	 1.48550E+03
 1.14156E+03	 1.46700E+03
 1.14514E+03	 1.46550E+03
 1.14872E+03	 1.51650E+03
 1.15230E+03	 1.47600E+03
 1.15588E+03	 1.46450E+03
 1.15946E+03	 1.47000E+03
 1.16303E+03	 1.47550E+03
 1.16661E+03	 1.47950E+03
 1.17018E+03	 1.45950E+03
 1.17375E+03	 1.44750E+03
 1.17732E+03	 1.47950E+03
 1.18089E+03	 1.46650E+03
 1.18446E+03	 1.45600E+03
 1.18803E+03	 1.45200E+03
 1.19159E+03	 1.47650E+03
 1.19516E+03	 1.51300E+03
 1.19872E+03	 1.49250E+03
 1.20228E+03	 1.48150E+03
 1.20584E+03	 1.49000E+03
 1.20940E+03	 1.47100E+03
 1.21296E+03	 1.47650E+03
 1.21651E+03	 1.48000E+03
 1.22007E+03	 1.47350E+03
 1.22362E+03	 1.47950E+03
 1.22717E+03	 1.47400E+03
 1.23072E+03	 1.46450E+03
 1.23427E+03	 1.47900E+03
 1.23782E+03	 1.45100E+03
 1.24137E+03	 1.47850E+03
 1.24491E+03	 1.45200E+03
 1.24846E+03	 1.44850E+03
 1.25200E+03	 1.47300E+03
 1.25554E+03	 1.46950E+03
 1.25908E+03	 1.47000E+03
 1.26262E+03	 1.44700E+03
 1.26616E+03	 1.41900E+03
 1.26970E+03	 1.44200E+03
 1.27323E+03	 1.45700E+03
 1.27677E+03	 1.47300E+03
 1.28030E+03	 1.43950E+03
 1.28383E+03	 1.45900E+03
 1.28736E+03	 1.48100E+03
 1.29089E+03	 1.46450E+03
 1.29442E+03	 1.43650E+03
 1.29794E+03	 1.44900E+03
 1.30147E+03	 1.48100E+03
 1.30499E+03	 1.45650E+03
 1.30851E+03	 1.45450E+03
 1.31203E+03	 1.46350E+03
 1.31555E+03	 1.48800E+03
 1.31907E+03	 1.43800E+03
 1.32259E+03	 1.48850E+03
 1.32611E+03	 1.46950E+03
 1.32962E+03	 1.46900E+03
 1.33313E+03	 1.48450E+03
 1.33665E+03	 1.48650E+03
 1.34016E+03	 1.47600E+03
 1.34367E+03	 1.49550E+03
 1.34717E+03	 1.49650E+03
 1.35068E+03	 1.50200E+03
 1.35419E+03	 1.48300E+03
 1.35769E+03	 1.47150E+03
 1.36119E+03	 1.48750E+03
 1.36470E+03	 1.46050E+03
 1.36820E+03	 1.46100E+03
 1.37169E+03	 1.45300E+03
 1.37519E+03	 1.44250E+03
 1.37869E+03	 1.47200E+03
 1.38218E+03	 1.47050E+03
 1.38568E+03	 1.46250E+03
 1.38917E+03	 1.46550E+03
 1.39266E+03	 1.47950E+03
 1.39615E+03	 1.43750E+03
 1.39964E+03	 1.43200E+03
 1.40313E+03	 1.44150E+03
 1.40662E+03	 1.45850E+03
 1.41010E+03	 1.47050E+03
 1.41359E+03	 1.44650E+03
 1.41707E+03	 1.42400E+03
 1.42055E+03	 1.45550E+03
 1.42403E+03	 1.44900E+03
 1.42751E+03	 1.43900E+03
 1.43099E+03	 1.43500E+03
 1.43446E+03	 1.42100E+03
 1.43794E+03	 1.45400E+03
 1.44141E+03	 1.44000E+03
 1.44488E+03	 1.42750E+03
 1.44835E+03	 1.44250E+03
 1.45182E+03	 1.42950E+03
 1.45529E+03	 1.43900E+03
 1.45876E+03	 1.44350E+03
 1.46223E+03	 1.46250E+03
 1.46569E+03	 1.45650E+03
 1.46916E+03	 1.46400E+03
 1.47262E+03	 1.47150E+03
 1.47608E+03	 1.44600E+03
 1.47954E+03	 1.45750E+03
 1.48300E+03	 1.47700E+03
 1.48646E+03	 1.47750E+03
 1.48991E+03	 1.47500E+03
 1.49337E+03	 1.50250E+03
 1.49682E+03	 1.50400E+03
 1.50027E+03	 1.50650E+03
 1.50372E+03	 1.50550E+03
 1.50717E+03	 1.51650E+03
 1.51062E+03	 1.49150E+03
 1.51407E+03	 1.52550E+03
 1.51752E+03	 1.49300E+03
 1.52096E+03	 1.49050E+03
 1.52440E+03	 1.50550E+03
 1.52785E+03	 1.47150E+03
 1.53129E+03	 1.46050E+03
 1.53473E+03	 1.46400E+03
 1.53817E+03	 1.46950E+03
 1.54160E+03	 1.46900E+03
 1.54504E+03	 1.47650E+03
 1.54848E+03	 1.46200E+03
 1.55191E+03	 1.47200E+03
 1.55534E+03	 1.51300E+03
 1.55877E+03	 1.48450E+03
 1.56220E+03	 1.49150E+03
 1.56563E+03	 1.45450E+03
 1.56906E+03	 1.46150E+03
 1.57249E+03	 1.47750E+03
 1.57591E+03	 1.46950E+03
 1.57933E+03	 1.50550E+03
 1.58276E+03	 1.47400E+03
 1.58618E+03	 1.47850E+03
 1.58960E+03	 1.47700E+03
 1.59302E+03	 1.44850E+03
 1.59644E+03	 1.47900E+03
 1.59985E+03	 1.47450E+03
 1.60327E+03	 1.47750E+03
 1.60668E+03	 1.50800E+03
 1.61009E+03	 1.46500E+03
 1.61351E+03	 1.47250E+03
 1.61692E+03	 1.48900E+03
 1.62032E+03	 1.50250E+03
 1.62373E+03	 1.49150E+03
 1.62714E+03	 1.49450E+03
 1.63054E+03	 1.51250E+03
 1.63395E+03	 1.50400E+03
 1.63735E+03	 1.51000E+03
 1.64075E+03	 1.47350E+03
 1.64415E+03	 1.47850E+03
 1.64755E+03	 1.46250E+03
 1.65095E+03	 1.49200E+03
 1.65435E+03	 1.47400E+03
 1.65774E+03	 1.50450E+03
 1.66114E+03	 1.46150E+03
 1.66453E+03	 1.48100E+03
 1.66792E+03	 1.49050E+03
 1.67131E+03	 1.48650E+03
 1.67470E+03	 1.45500E+03
 1.67809E+03	 1.48600E+03
 1.68148E+03	 1.49400E+03
 1.68487E+03	 1.48700E+03
 1.68825E+03	 1.46150E+03
 1.69163E+03	 1.50600E+03
 1.69502E+03	 1.49000E+03
 1.69840E+03	 1.49800E+03
 1.70178E+03	 1.49350E+03
 1.70516E+03	 1.49500E+03
 1.70853E+03	 1.49350E+03
 1.71191E+03	 1.47000E+03
 1.71528E+03	 1.48200E+03
 1.71866E+03	 1.47100E+03
 1.72203E+03	 1.48350E+03
 1.72540E+03	 1.45000E+03
 1.72877E+03	 1.48850E+03
 1.73214E+03	 1.45200E+03
 1.73551E+03	 1.47400E+03
 1.73888E+03	 1.46900E+03
 1.74224E+03	 1.46700E+03
 1.74560E+03	 1.45650E+03
 1.74897E+03	 1.45450E+03
 1.75233E+03	 1.45200E+03
 1.75569E+03	 1.45200E+03
 1.75905E+03	 1.46800E+03
 1.76241E+03	 1.46800E+03
 1.76576E+03	 1.47000E+03
 1.76912E+03	 1.45700E+03
 1.77248E+03	 1.46800E+03
 1.77583E+03	 1.48800E+03
 1.77918E+03	 1.44050E+03
 1.78253E+03	 1.44350E+03
 1.78588E+03	 1.44800E+03
 1.78923E+03	 1.43450E+03
 1.79258E+03	 1.48300E+03
 1.79592E+03	 1.43800E+03
 1.79927E+03	 1.46700E+03
 1.80261E+03	 1.45300E+03
 1.80596E+03	 1.45450E+03
 1.80930E+03	 1.44400E+03
 1.81264E+03	 1.45100E+03
 1.81598E+03	 1.43750E+03
 1.81931E+03	 1.42800E+03
 1.82265E+03	 1.45350E+03
 1.82599E+03	 1.44700E+03
 1.82932E+03	 1.43900E+03
 1.83265E+03	 1.46650E+03
 1.83599E+03	 1.46000E+03
 1.83932E+03	 1.44750E+03
 1.84265E+03	 1.47700E+03
 1.84598E+03	 1.44800E+03
 1.84930E+03	 1.46850E+03
 1.85263E+03	 1.44450E+03
 1.85595E+03	 1.45100E+03
 1.85928E+03	 1.44200E+03
 1.86260E+03	 1.43550E+03
 1.86592E+03	 1.47250E+03
 1.86924E+03	 1.45050E+03
 1.87256E+03	 1.45850E+03
 1.87588E+03	 1.42700E+03
 1.87920E+03	 1.44850E+03
 1.88251E+03	 1.46800E+03
 1.88583E+03	 1.46600E+03
 1.88914E+03	 1.45700E+03
 1.89245E+03	 1.45150E+03
 1.89576E+03	 1.47400E+03
 1.89907E+03	 1.46200E+03
 1.90238E+03	 1.44650E+03
 1.90569E+03	 1.47350E+03
 1.90899E+03	 1.46350E+03
 1.91230E+03	 1.45800E+03
 1.91560E+03	 1.46600E+03
 1.91891E+03	 1.44750E+03
 1.92221E+03	 1.47350E+03
 1.92551E+03	 1.47350E+03
 1.92881E+03	 1.47200E+03
 1.93210E+03	 1.46050E+03
 1.93540E+03	 1.46950E+03
 1.93870E+03	 1.47550E+03
 1.94199E+03	 1.47350E+03
 1.94528E+03	 1.44700E+03
 1.94858E+03	 1.45250E+03
 1.95187E+03	 1.47450E+03
 1.95516E+03	 1.44500E+03
 1.95845E+03	 1.44050E+03
 1.96173E+03	 1.46150E+03
 1.96502E+03	 1.48500E+03
 1.96831E+03	 1.49850E+03
 1.97159E+03	 1.49350E+03
 1.97487E+03	 1.48350E+03
 1.97816E+03	 1.48700E+03
 1.98144E+03	 1.46700E+03
 1.98472E+03	 1.47400E+03
 1.98799E+03	 1.47000E+03
 1.99127E+03	 1.47550E+03
 1.99455E+03	 1.47300E+03
 1.99782E+03	 1.45500E+03
 2.00110E+03	 1.45600E+03
 2.00437E+03	 1.47100E+03
 2.00764E+03	 1.47350E+03
 2.01091E+03	 1.46500E+03
 2.01418E+03	 1.50500E+03
 2.01745E+03	 1.47350E+03
 2.02071E+03	 1.47800E+03
 2.02398E+03	 1.47100E+03
 2.02724E+03	 1.47100E+03
 2.03051E+03	 1.46100E+03
 2.03377E+03	 1.50400E+03
 2.03703E+03	 1.48150E+03
 2.04029E+03	 1.46200E+03
 2.04355E+03	 1.50350E+03
 2.04681E+03	 1.48950E+03
 2.05006E+03	 1.48200E+03
 2.05332E+03	 1.48800E+03
 2.05657E+03	 1.47300E+03
 2.05983E+03	 1.49550E+03
 2.06308E+03	 1.49050E+03
 2.06633E+03	 1.47050E+03
 2.06958E+03	 1.51700E+03
 2.07283E+03	 1.51050E+03
 2.07608E+03	 1.49450E+03
 2.07932E+03	 1.50400E+03
 2.08257E+03	 1.49100E+03
 2.08581E+03	 1.50150E+03
 2.08905E+03	 1.49650E+03
 2.09230E+03	 1.50250E+03
 2.09554E+03	 1.48550E+03
 2.09878E+03	 1.49350E+03
 2.10202E+03	 1.47550E+03
 2.10525E+03	 1.50600E+03
 2.10849E+03	 1.51400E+03
 2.11172E+03	 1.50750E+03
 2.11496E+03	 1.49900E+03
 2.11819E+03	 1.51300E+03
 2.12142E+03	 1.50150E+03
 2.12465E+03	 1.50300E+03
 2.12788E+03	 1.50200E+03
 2.13111E+03	 1.52700E+03
 2.13434E+03	 1.51850E+03
 2.13756E+03	 1.52550E+03
 2.14079E+03	 1.51250E+03
 2.14401E+03	 1.52950E+03
 2.14724E+03	 1.51500E+03
 2.15046E+03	 1.52400E+03
 2.15368E+03	 1.50950E+03
 2.15690E+03	 1.52050E+03
 2.16011E+03	 1.49800E+03
 2.16333E+03	 1.50900E+03
 2.16655E+03	 1.50800E+03
 2.16976E+03	 1.49700E+03
 2.17298E+03	 1.52250E+03
 2.17619E+03	 1.50650E+03
 2.17940E+03	 1.48750E+03
 2.18261E+03	 1.50600E+03
 2.18582E+03	 1.52100E+03
 2.18903E+03	 1.51600E+03
 2.19224E+03	 1.51300E+03
 2.19544E+03	 1.49700E+03
 2.19865E+03	 1.51450E+03
 2.20185E+03	 1.48050E+03
 2.20505E+03	 1.51000E+03
 2.20825E+03	 1.53250E+03
 2.21145E+03	 1.50600E+03
 2.21465E+03	 1.52250E+03
 2.21785E+03	 1.48450E+03
 2.22105E+03	 1.49850E+03
 2.22425E+03	 1.48300E+03
 2.22744E+03	 1.49900E+03
 2.23063E+03	 1.50050E+03
 2.23383E+03	 1.50750E+03
 2.23702E+03	 1.49650E+03
 2.24021E+03	 1.47800E+03
 2.24340E+03	 1.48650E+03
 2.24659E+03	 1.50150E+03
 2.24977E+03	 1.50550E+03
 2.25296E+03	 1.50600E+03
 2.25614E+03	 1.48350E+03
 2.25933E+03	 1.49650E+03
 2.26251E+03	 1.48250E+03
 2.26569E+03	 1.48050E+03
 2.26887E+03	 1.47150E+03
 2.27205E+03	 1.49600E+03
 2.27523E+03	 1.48800E+03
 2.27841E+03	 1.50550E+03
 2.28158E+03	 1.48450E+03
 2.28476E+03	 1.49650E+03
 2.28793E+03	 1.50350E+03
 2.29111E+03	 1.50850E+03
 2.29428E+03	 1.50800E+03
 2.29745E+03	 1.48450E+03
 2.30062E+03	 1.51650E+03
 2.30379E+03	 1.48400E+03
 2.30695E+03	 1.51450E+03
 2.31012E+03	 1.52050E+03
 2.31329E+03	 1.49300E+03
 2.31645E+03	 1.50350E+03
 2.31961E+03	 1.49250E+03
 2.32278E+03	 1.50500E+03
 2.32594E+03	 1.47400E+03
 2.32910E+03	 1.50350E+03
 2.33225E+03	 1.51850E+03
 2.33541E+03	 1.50300E+03
 2.33857E+03	 1.50750E+03
 2.34172E+03	 1.47650E+03
 2.34488E+03	 1.49450E+03
 2.34803E+03	 1.50050E+03
 2.35118E+03	 1.49300E+03
 2.35434E+03	 1.50450E+03
 2.35749E+03	 1.50350E+03
 2.36063E+03	 1.51100E+03
 2.36378E+03	 1.50650E+03
 2.36693E+03	 1.54300E+03
 2.37008E+03	 1.53200E+03
 2.37322E+03	 1.49500E+03
 2.37636E+03	 1.52400E+03
 2.37951E+03	 1.51200E+03
 2.38265E+03	 1.48550E+03
 2.38579E+03	 1.52300E+03
 2.38893E+03	 1.54250E+03
 2.39207E+03	 1.53900E+03
 2.39520E+03	 1.54750E+03
 2.39834E+03	 1.52850E+03
 2.40147E+03	 1.53500E+03
 2.40461E+03	 1.51850E+03
 2.40774E+03	 1.53550E+03
 2.41087E+03	 1.53300E+03
 2.41400E+03	 1.54350E+03
 2.41713E+03	 1.52100E+03
 2.42026E+03	 1.54750E+03
 2.42339E+03	 1.55400E+03
 2.42652E+03	 1.55600E+03
 2.42964E+03	 1.54000E+03
 2.43277E+03	 1.53950E+03
 2.43589E+03	 1.54150E+03
 2.43901E+03	 1.55100E+03
 2.44213E+03	 1.54800E+03
 2.44525E+03	 1.53950E+03
 2.44837E+03	 1.53350E+03
 2.45149E+03	 1.56850E+03
 2.45461E+03	 1.57400E+03
 2.45772E+03	 1.56750E+03
 2.46084E+03	 1.58400E+03
 2.46395E+03	 1.54000E+03
 2.46706E+03	 1.57600E+03
 2.47017E+03	 1.51300E+03
 2.47328E+03	 1.52850E+03
 2.47639E+03	 1.53550E+03
 2.47950E+03	 1.54500E+03
 2.48261E+03	 1.54800E+03
 2.48572E+03	 1.56350E+03
 2.48882E+03	 1.57950E+03
 2.49193E+03	 1.54900E+03
 2.49503E+03	 1.54900E+03
 2.49813E+03	 1.56350E+03
 2.50123E+03	 1.56200E+03
 2.50433E+03	 1.54400E+03
 2.50743E+03	 1.53750E+03
 2.51053E+03	 1.54000E+03
 2.51363E+03	 1.56750E+03
 2.51672E+03	 1.58150E+03
 2.51982E+03	 1.60850E+03
 2.52291E+03	 1.54600E+03
 2.52600E+03	 1.55450E+03
 2.52909E+03	 1.57050E+03
 2.53218E+03	 1.56850E+03
 2.53527E+03	 1.55100E+03
 2.53836E+03	 1.55550E+03
 2.54145E+03	 1.54450E+03
 2.54454E+03	 1.56550E+03
 2.54762E+03	 1.56450E+03
 2.55071E+03	 1.53850E+03
 2.55379E+03	 1.55600E+03
 2.55687E+03	 1.55050E+03
 2.55995E+03	 1.54200E+03
 2.56303E+03	 1.55050E+03
 2.56611E+03	 1.57200E+03
 2.56919E+03	 1.54550E+03
 2.57227E+03	 1.54800E+03
 2.57534E+03	 1.56500E+03
 2.57842E+03	 1.56100E+03
 2.58149E+03	 1.57750E+03
 2.58456E+03	 1.57650E+03
 2.58764E+03	 1.53550E+03
 2.59071E+03	 1.55950E+03
 2.59378E+03	 1.53750E+03
 2.59684E+03	 1.56850E+03
 2.59991E+03	 1.54750E+03
 2.60298E+03	 1.58500E+03
 2.60604E+03	 1.58250E+03
 2.60911E+03	 1.56800E+03
 2.61217E+03	 1.53650E+03
 2.61524E+03	 1.55700E+03
 2.61830E+03	 1.54500E+03
 2.62136E+03	 1.55100E+03
 2.62442E+03	 1.53850E+03
 2.62747E+03	 1.54000E+03
 2.63053E+03	 1.58300E+03
 2.63359E+03	 1.55150E+03
 2.63664E+03	 1.57650E+03
 2.63970E+03	 1.57250E+03
 2.64275E+03	 1.58950E+03
 2.64580E+03	 1.54950E+03
 2.64885E+03	 1.55550E+03
 2.65190E+03	 1.54400E+03
 2.65495E+03	 1.57000E+03
 2.65800E+03	 1.59300E+03
 2.66105E+03	 1.57050E+03
 2.66409E+03	 1.60250E+03
 2.66714E+03	 1.57000E+03
 2.67018E+03	 1.59600E+03
 2.67323E+03	 1.57350E+03
 2.67627E+03	 1.58600E+03
 2.67931E+03	 1.57550E+03
 2.68235E+03	 1.60450E+03
 2.68539E+03	 1.59900E+03
 2.68843E+03	 1.60150E+03
 2.69146E+03	 1.60000E+03
 2.69450E+03	 1.60500E+03
 2.69753E+03	 1.59400E+03
 2.70057E+03	 1.57300E+03
 2.70360E+03	 1.63300E+03
 2.70663E+03	 1.59550E+03
 2.70966E+03	 1.58250E+03
 2.71269E+03	 1.61150E+03
 2.71572E+03	 1.54250E+03
 2.71875E+03	 1.59100E+03
 2.72178E+03	 1.59500E+03
 2.72480E+03	 1.60150E+03
 2.72783E+03	 1.59600E+03
 2.73085E+03	 1.59600E+03
 2.73387E+03	 1.62550E+03
 2.73689E+03	 1.63400E+03
 2.73991E+03	 1.67450E+03
 2.74293E+03	 1.63550E+03
 2.74595E+03	 1.60750E+03
 2.74897E+03	 1.59700E+03
 2.75199E+03	 1.61750E+03
 2.75500E+03	 1.56000E+03
 2.75802E+03	 1.60500E+03
 2.76103E+03	 1.61250E+03
 2.76404E+03	 1.62950E+03
 2.76706E+03	 1.61150E+03
 2.77007E+03	 1.59900E+03
 2.77308E+03	 1.59950E+03
 2.77608E+03	 1.59750E+03
 2.77909E+03	 1.61400E+03
 2.78210E+03	 1.63550E+03
 2.78510E+03	 1.61350E+03
 2.78811E+03	 1.60000E+03
 2.79111E+03	 1.65200E+03
 2.79411E+03	 1.65050E+03
 2.79712E+03	 1.61400E+03
 2.80012E+03	 1.61100E+03
 2.80312E+03	 1.64150E+03
 2.80611E+03	 1.60000E+03
 2.80911E+03	 1.62450E+03
 2.81211E+03	 1.63200E+03
 2.81510E+03	 1.63700E+03
 2.81810E+03	 1.61700E+03
 2.82109E+03	 1.63850E+03
 2.82409E+03	 1.61600E+03
 2.82708E+03	 1.64050E+03
 2.83007E+03	 1.60150E+03
 2.83306E+03	 1.60900E+03
 2.83605E+03	 1.61050E+03
 2.83903E+03	 1.65000E+03
 2.84202E+03	 1.66900E+03
 2.84501E+03	 1.62150E+03
 2.84799E+03	 1.61400E+03
 2.85097E+03	 1.62300E+03
 2.85396E+03	 1.60700E+03
 2.85694E+03	 1.62150E+03
 2.85992E+03	 1.61650E+03
 2.86290E+03	 1.67300E+03
 2.86588E+03	 1.64750E+03
 2.86886E+03	 1.65500E+03
 2.87183E+03	 1.65200E+03
 2.87481E+03	 1.63600E+03
 2.87778E+03	 1.65100E+03
 2.88076E+03	 1.63100E+03
 2.88373E+03	 1.64400E+03
 2.88670E+03	 1.64200E+03
 2.88967E+03	 1.59500E+03
 2.89264E+03	 1.63800E+03
 2.89561E+03	 1.65000E+03
 2.89858E+03	 1.66900E+03
 2.90155E+03	 1.67550E+03
 2.90451E+03	 1.66850E+03
 2.90748E+03	 1.63450E+03
 2.91044E+03	 1.65450E+03
 2.91340E+03	 1.67200E+03
 2.91637E+03	 1.65750E+03
 2.91933E+03	 1.68300E+03
 2.92229E+03	 1.68400E+03
 2.92525E+03	 1.66050E+03
 2.92821E+03	 1.64700E+03
 2.93116E+03	 1.64850E+03
 2.93412E+03	 1.67000E+03
 2.93707E+03	 1.64750E+03
 2.94003E+03	 1.67400E+03
 2.94298E+03	 1.62900E+03
 2.94593E+03	 1.67300E+03
 2.94889E+03	 1.67000E+03
 2.95184E+03	 1.63800E+03
 2.95479E+03	 1.70150E+03
 2.95773E+03	 1.68100E+03
 2.96068E+03	 1.70200E+03
 2.96363E+03	 1.68300E+03
 2.96657E+03	 1.68500E+03
 2.96952E+03	 1.68300E+03
 2.97246E+03	 1.69950E+03
 2.97540E+03	 1.69050E+03
 2.97835E+03	 1.71000E+03
 2.98129E+03	 1.71550E+03
 2.98423E+03	 1.72800E+03
 2.98716E+03	 1.67800E+03
 2.99010E+03	 1.66200E+03
 2.99304E+03	 1.67250E+03
 2.99598E+03	 1.68250E+03
 2.99891E+03	 1.66650E+03
 3.00184E+03	 1.72700E+03
 3.00478E+03	 1.66150E+03
 3.00771E+03	 1.68300E+03
 3.01064E+03	 1.68650E+03
 3.01357E+03	 1.73950E+03
 3.01650E+03	 1.71200E+03
 3.01943E+03	 1.69900E+03
 3.02236E+03	 1.69000E+03
 3.02528E+03	 1.73500E+03
 3.02821E+03	 1.68250E+03
 3.03113E+03	 1.73550E+03
 3.03405E+03	 1.71550E+03
 3.03698E+03	 1.71500E+03
 3.03990E+03	 1.72200E+03
 3.04282E+03	 1.70050E+03
 3.04574E+03	 1.70850E+03
 3.04866E+03	 1.73900E+03
 3.05158E+03	 1.70800E+03
 3.05449E+03	 1.74500E+03
 3.05741E+03	 1.73000E+03
 3.06032E+03	 1.76500E+03
 3.06324E+03	 1.74900E+03
 3.06615E+03	 1.74550E+03
 3.06906E+03	 1.75100E+03
 3.07197E+03	 1.78200E+03
 3.07488E+03	 1.73450E+03
 3.07779E+03	 1.74900E+03
 3.08070E+03	 1.75900E+03
 3.08361E+03	 1.73600E+03
 3.08651E+03	 1.75650E+03
 3.08942E+03	 1.74900E+03
 3.09232E+03	 1.74150E+03
 3.09523E+03	 1.78100E+03
 3.09813E+03	 1.76650E+03
 3.10103E+03	 1.79050E+03
 3.10393E+03	 1.79600E+03
 3.10683E+03	 1.80050E+03
 3.10973E+03	 1.80950E+03
 3.11263E+03	 1.75450E+03
 3.11552E+03	 1.77650E+03
 3.11842E+03	 1.80900E+03
 3.12131E+03	 1.80100E+03
 3.12421E+03	 1.81800E+03
 3.12710E+03	 1.81600E+03
 3.12999E+03	 1.81600E+03
 3.13289E+03	 1.80600E+03
 3.13578E+03	 1.83000E+03
 3.13867E+03	 1.81700E+03
 3.14155E+03	 1.85850E+03
 3.14444E+03	 1.83400E+03
 3.14733E+03	 1.85300E+03
 3.15021E+03	 1.86150E+03
 3.15310E+03	 1.85850E+03
 3.15598E+03	 1.85950E+03
 3.15886E+03	 1.86400E+03
 3.16175E+03	 1.88800E+03
 3.16463E+03	 1.87550E+03
 3.16751E+03	 1.85350E+03
 3.17039E+03	 1.87900E+03
 3.17326E+03	 1.86900E+03
 3.17614E+03	 1.84900E+03
 3.17902E+03	 1.91150E+03
 3.18189E+03	 1.93850E+03
 3.18477E+03	 1.86450E+03
 3.18764E+03	 1.88700E+03
 3.19051E+03	 1.85900E+03
 3.19338E+03	 1.84200E+03
 3.19626E+03	 1.88200E+03
 3.19913E+03	 1.93400E+03
 3.20199E+03	 1.88400E+03
 3.20486E+03	 1.87900E+03
 3.20773E+03	 1.91550E+03
 3.21059E+03	 1.94050E+03
 3.21346E+03	 1.88200E+03
 3.21632E+03	 1.93300E+03
 3.21919E+03	 1.91900E+03
 3.22205E+03	 1.89950E+03
 3.22491E+03	 1.94900E+03
 3.22777E+03	 1.91700E+03
 3.23063E+03	 1.90600E+03
 3.23349E+03	 1.92500E+03
 3.23635E+03	 1.89450E+03
 3.23920E+03	 1.91450E+03
 3.24206E+03	 1.93750E+03
 3.24492E+03	 1.93150E+03
 3.24777E+03	 1.92200E+03
 3.25062E+03	 1.92850E+03
 3.25347E+03	 1.94150E+03
 3.25633E+03	 1.92600E+03
 3.25918E+03	 1.94200E+03
 3.26203E+03	 1.96500E+03
 3.26487E+03	 1.97850E+03
 3.26772E+03	 1.91700E+03
 3.27057E+03	 1.93900E+03
 3.27341E+03	 1.93750E+03
 3.27626E+03	 1.91700E+03
 3.27910E+03	 1.92250E+03
 3.28195E+03	 1.94400E+03
 3.28479E+03	 1.95500E+03
 3.28763E+03	 1.97950E+03
 3.29047E+03	 1.95350E+03
 3.29331E+03	 1.95750E+03
 3.29615E+03	 1.95050E+03
 3.29899E+03	 1.95900E+03
 3.30182E+03	 1.99200E+03
 3.30466E+03	 1.95600E+03
 3.30749E+03	 1.98400E+03
 3.31033E+03	 1.98800E+03
 3.31316E+03	 2.01050E+03
 3.31599E+03	 1.99550E+03
 3.31882E+03	 2.00250E+03
 3.32165E+03	 1.96800E+03
 3.32448E+03	 1.98450E+03
 3.32731E+03	 2.00750E+03
 3.33014E+03	 2.02500E+03
 3.33297E+03	 1.97550E+03
 3.33579E+03	 2.00200E+03
 3.33862E+03	 2.04050E+03
 3.34144E+03	 2.03650E+03
 3.34426E+03	 2.04650E+03
 3.34709E+03	 2.02650E+03
 3.34991E+03	 2.02000E+03
 3.35273E+03	 2.01850E+03
 3.35555E+03	 2.05050E+03
 3.35837E+03	 1.98700E+03
 3.36118E+03	 2.01700E+03
 3.36400E+03	 2.02700E+03
 3.36682E+03	 2.05750E+03
 3.36963E+03	 2.03300E+03
 3.37244E+03	 2.08050E+03
 3.37526E+03	 2.04250E+03
 3.37807E+03	 2.00750E+03
 3.38088E+03	 2.06050E+03
 3.38369E+03	 2.02300E+03
 3.38650E+03	 2.01700E+03
 3.38931E+03	 2.04100E+03
 3.39212E+03	 2.02150E+03
 3.39492E+03	 2.02350E+03
 3.39773E+03	 2.02500E+03
 3.40054E+03	 2.06600E+03
 3.40334E+03	 2.05350E+03
 3.40614E+03	 2.06150E+03
 3.40895E+03	 2.04850E+03
 3.41175E+03	 2.05650E+03
 3.41455E+03	 2.03900E+03
 3.41735E+03	 2.07850E+03
 3.42015E+03	 2.11150E+03
 3.42294E+03	 2.10350E+03
 3.42574E+03	 2.13450E+03
 3.42854E+03	 2.11250E+03
 3.43133E+03	 2.12900E+03
 3.43413E+03	 2.10350E+03
 3.43692E+03	 2.11450E+03
 3.43971E+03	 2.14100E+03
 3.44251E+03	 2.08400E+03
 3.44530E+03	 2.13050E+03
 3.44809E+03	 2.13150E+03
 3.45088E+03	 2.17250E+03
 3.45366E+03	 2.16050E+03
 3.45645E+03	 2.16750E+03
 3.45924E+03	 2.12050E+03
 3.46202E+03	 2.12750E+03
 3.46481E+03	 2.20150E+03
 3.46759E+03	 2.15200E+03
 3.47038E+03	 2.21100E+03
 3.47316E+03	 2.20500E+03
 3.47594E+03	 2.18150E+03
 3.47872E+03	 2.19700E+03
 3.48150E+03	 2.22500E+03
 3.48428E+03	 2.20800E+03
 3.48705E+03	 2.22650E+03
 3.48983E+03	 2.22600E+03
 3.49261E+03	 2.19700E+03
 3.49538E+03	 2.25600E+03
 3.49816E+03	 2.21300E+03
 3.50093E+03	 2.27500E+03
 3.50370E+03	 2.26550E+03
 3.50647E+03	 2.25300E+03
 3.50924E+03	 2.30550E+03
 3.51201E+03	 2.32300E+03
 3.51478E+03	 2.27000E+03
 3.51755E+03	 2.32700E+03
 3.52032E+03	 2.27500E+03
 3.52308E+03	 2.30450E+03
 3.52585E+03	 2.24750E+03
 3.52861E+03	 2.38100E+03
 3.53138E+03	 2.28350E+03
 3.53414E+03	 2.34800E+03
 3.53690E+03	 2.31200E+03
 3.53966E+03	 2.34600E+03
 3.54242E+03	 2.32950E+03
 3.54518E+03	 2.38900E+03
 3.54794E+03	 2.32400E+03
 3.55070E+03	 2.39500E+03
 3.55345E+03	 2.35250E+03
 3.55621E+03	 2.42050E+03
 3.55897E+03	 2.39150E+03
 3.56172E+03	 2.39850E+03
 3.56447E+03	 2.38950E+03
 3.56723E+03	 2.40850E+03
 3.56998E+03	 2.38700E+03
 3.57273E+03	 2.37200E+03
 3.57548E+03	 2.35600E+03
 3.57823E+03	 2.40900E+03
 3.58097E+03	 2.37600E+03
 3.58372E+03	 2.38900E+03
 3.58647E+03	 2.42800E+03
 3.58921E+03	 2.42050E+03
 3.59196E+03	 2.34000E+03
 3.59470E+03	 2.40900E+03
 3.59744E+03	 2.45950E+03
 3.60019E+03	 2.37800E+03
 3.60293E+03	 2.34700E+03
 3.60567E+03	 2.37850E+03
 3.60841E+03	 2.44150E+03
 3.61115E+03	 2.38400E+03
 3.61388E+03	 2.35500E+03
 3.61662E+03	 2.38450E+03
 3.61936E+03	 2.41400E+03
 3.62209E+03	 2.37300E+03
 3.62483E+03	 2.33850E+03
 3.62756E+03	 2.43500E+03
 3.63029E+03	 2.41650E+03
 3.63302E+03	 2.40350E+03
 3.63575E+03	 2.40100E+03
 3.63848E+03	 2.40200E+03
 3.64121E+03	 2.39300E+03
 3.64394E+03	 2.42400E+03
 3.64667E+03	 2.41300E+03
 3.64940E+03	 2.43300E+03
 3.65212E+03	 2.41500E+03
 3.65485E+03	 2.44550E+03
 3.65757E+03	 2.44200E+03
 3.66029E+03	 2.48350E+03
 3.66302E+03	 2.41150E+03
 3.66574E+03	 2.47000E+03
 3.66846E+03	 2.39000E+03
 3.67118E+03	 2.46650E+03
 3.67390E+03	 2.52300E+03
 3.67661E+03	 2.44500E+03
 3.67933E+03	 2.43550E+03
 3.68205E+03	 2.41550E+03
 3.68476E+03	 2.47500E+03
 3.68748E+03	 2.51600E+03
 3.69019E+03	 2.52050E+03
 3.69290E+03	 2.42750E+03
 3.69562E+03	 2.48750E+03
 3.69833E+03	 2.45750E+03
 3.70104E+03	 2.49850E+03
 3.70375E+03	 2.51000E+03
 3.70646E+03	 2.53000E+03
 3.70916E+03	 2.48650E+03
 3.71187E+03	 2.55650E+03
 3.71458E+03	 2.52400E+03
 3.71728E+03	 2.54200E+03
 3.71999E+03	 2.59450E+03
 3.72269E+03	 2.54100E+03
 3.72539E+03	 2.60700E+03
 3.72810E+03	 2.55400E+03
 3.73080E+03	 2.57550E+03
 3.73350E+03	 2.55550E+03
 3.73620E+03	 2.59300E+03
 3.73890E+03	 2.61000E+03
 3.74159E+03	 2.63700E+03
 3.74429E+03	 2.62000E+03
 3.74699E+03	 2.63750E+03
 3.74968E+03	 2.66750E+03
 3.75238E+03	 2.62900E+03
 3.75507E+03	 2.67500E+03
 3.75776E+03	 2.70350E+03
 3.76046E+03	 2.68400E+03
 3.76315E+03	 2.67200E+03
 3.76584E+03	 2.73200E+03
 3.76853E+03	 2.74100E+03
 3.77122E+03	 2.72350E+03
 3.77390E+03	 2.75950E+03
 3.77659E+03	 2.74950E+03
 3.77928E+03	 2.71650E+03
 3.78196E+03	 2.75650E+03
 3.78465E+03	 2.81700E+03
 3.78733E+03	 2.78500E+03
 3.79001E+03	 2.78350E+03
 3.79269E+03	 2.82950E+03
 3.79538E+03	 2.85350E+03
 3.79806E+03	 2.77650E+03
 3.80074E+03	 2.83050E+03
 3.80341E+03	 2.93650E+03
 3.80609E+03	 2.90850E+03
 3.80877E+03	 2.92950E+03
 3.81145E+03	 2.90500E+03
 3.81412E+03	 2.88200E+03
 3.81680E+03	 2.92000E+03
 3.81947E+03	 2.92350E+03
 3.82214E+03	 2.89000E+03
 3.82481E+03	 2.96050E+03
 3.82748E+03	 2.97400E+03
 3.83016E+03	 3.01900E+03
 3.83283E+03	 3.01200E+03
 3.83549E+03	 2.99050E+03
 3.83816E+03	 3.07200E+03
 3.84083E+03	 3.01850E+03
 3.84350E+03	 3.04350E+03
 3.84616E+03	 3.04150E+03
 3.84883E+03	 3.05700E+03
 3.85149E+03	 3.07550E+03
 3.85415E+03	 3.10000E+03
 3.85681E+03	 3.08500E+03
 3.85948E+03	 3.13600E+03
 3.86214E+03	 3.08200E+03
 3.86480E+03	 3.14300E+03
 3.86745E+03	 3.11550E+03
 3.87011E+03	 3.16050E+03
 3.87277E+03	 3.15200E+03
 3.87543E+03	 3.15700E+03
 3.87808E+03	 3.16600E+03
 3.88074E+03	 3.15050E+03
 3.88339E+03	 3.14800E+03
 3.88604E+03	 3.25600E+03
 3.88870E+03	 3.32650E+03
 3.89135E+03	 3.21550E+03
 3.89400E+03	 3.24600E+03
 3.89665E+03	 3.25200E+03
 3.89930E+03	 3.27250E+03
 3.90195E+03	 3.27200E+03
 3.90459E+03	 3.32450E+03
 3.90724E+03	 3.36950E+03
 3.90989E+03	 3.35250E+03
 3.91253E+03	 3.36800E+03
 3.91518E+03	 3.37300E+03
 3.91782E+03	 3.35650E+03
 3.92046E+03	 3.40400E+03
 3.92310E+03	 3.47000E+03
 3.92574E+03	 3.47200E+03
 3.92839E+03	 3.47850E+03
 3.93102E+03	 3.49150E+03
 3.93366E+03	 3.55400E+03
 3.93630E+03	 3.49350E+03
 3.93894E+03	 3.56400E+03
 3.94157E+03	 3.60750E+03
 3.94421E+03	 3.60800E+03
 3.94684E+03	 3.59550E+03
 3.94948E+03	 3.61850E+03
 3.95211E+03	 3.67750E+03
 3.95474E+03	 3.66750E+03
 3.95737E+03	 3.72700E+03
 3.96000E+03	 3.77600E+03
 3.96263E+03	 3.71700E+03
 3.96526E+03	 3.78850E+03
 3.96789E+03	 3.73900E+03
 3.97052E+03	 3.84450E+03
 3.97315E+03	 3.77850E+03
 3.97577E+03	 3.88100E+03
 3.97840E+03	 3.86950E+03
 3.98102E+03	 3.93200E+03
 3.98364E+03	 3.94850E+03
 3.98627E+03	 3.88900E+03
 3.98889E+03	 3.99550E+03
 3.99151E+03	 3.98100E+03
 3.99413E+03	 4.03150E+03
 3.99675E+03	 3.96350E+03
 3.99937E+03	 4.03150E+03
 4.00198E+03	 4.04150E+03
 4.00460E+03	 4.14900E+03
 4.00722E+03	 4.07600E+03
 4.00983E+03	 4.13100E+03
 4.01245E+03	 4.30900E+03
 4.01506E+03	 4.13350E+03
 4.01767E+03	 4.30700E+03
 4.02029E+03	 4.26500E+03
 4.02290E+03	 4.25750E+03
 4.02551E+03	 4.33650E+03
 4.02812E+03	 4.30350E+03
 4.03073E+03	 4.39650E+03
 4.03334E+03	 4.46650E+03
 4.03594E+03	 4.43000E+03
 4.03855E+03	 4.48100E+03
 4.04115E+03	 4.55700E+03
 4.04376E+03	 4.49800E+03
 4.04636E+03	 4.69400E+03
 4.04897E+03	 4.58050E+03
 4.05157E+03	 4.72300E+03
 4.05417E+03	 4.71400E+03
 4.05677E+03	 4.71850E+03
 4.05937E+03	 4.76150E+03
 4.06197E+03	 4.75950E+03
 4.06457E+03	 4.77900E+03
 4.06717E+03	 4.78600E+03
 4.06977E+03	 4.83800E+03
 4.07236E+03	 4.88350E+03
 4.07496E+03	 4.96800E+03
 4.07755E+03	 4.92800E+03
 4.08015E+03	 5.08800E+03
 4.08274E+03	 4.98150E+03
 4.08533E+03	 5.03050E+03
 4.08792E+03	 5.13000E+03
 4.09052E+03	 5.16050E+03
 4.09311E+03	 5.16200E+03
 4.09569E+03	 5.12450E+03
 4.09828E+03	 5.21950E+03
 4.10087E+03	 5.26400E+03
 4.10346E+03	 5.27700E+03
 4.10604E+03	 5.44650E+03
 4.10863E+03	 5.40750E+03
 4.11121E+03	 5.47400E+03
 4.11380E+03	 5.39450E+03
 4.11638E+03	 5.45450E+03
 4.11896E+03	 5.52800E+03
 4.12154E+03	 5.53150E+03
 4.12413E+03	 5.58000E+03
 4.12671E+03	 5.69100E+03
 4.12928E+03	 5.77700E+03
 4.13186E+03	 5.69200E+03
 4.13444E+03	 5.72000E+03
 4.13702E+03	 5.70350E+03
 4.13959E+03	 5.86750E+03
 4.14217E+03	 5.83450E+03
 4.14474E+03	 5.79150E+03
 4.14732E+03	 5.92250E+03
 4.14989E+03	 5.95900E+03
 4.15246E+03	 5.85850E+03
 4.15503E+03	 6.03300E+03
 4.15760E+03	 6.12200E+03
 4.16017E+03	 6.15800E+03
 4.16274E+03	 6.13700E+03
 4.16531E+03	 6.16600E+03
 4.16788E+03	 6.10450E+03
 4.17044E+03	 6.27450E+03
 4.17301E+03	 6.38150E+03
 4.17558E+03	 6.44100E+03
 4.17814E+03	 6.45500E+03
 4.18070E+03	 6.46500E+03
 4.18327E+03	 6.39450E+03
 4.18583E+03	 6.54500E+03
 4.18839E+03	 6.50100E+03
 4.19095E+03	 6.51900E+03
 4.19351E+03	 6.64900E+03
 4.19607E+03	 6.66900E+03
 4.19863E+03	 6.69050E+03
 4.20119E+03	 6.65600E+03
 4.20374E+03	 6.75500E+03
 4.20630E+03	 6.86150E+03
 4.20885E+03	 6.74500E+03
 4.21141E+03	 6.87000E+03
 4.21396E+03	 6.72850E+03
 4.21651E+03	 6.90500E+03
 4.21907E+03	 6.87450E+03
 4.22162E+03	 6.88350E+03
 4.22417E+03	 7.14550E+03
 4.22672E+03	 7.05200E+03
 4.22927E+03	 7.02500E+03
 4.23182E+03	 7.00400E+03
 4.23436E+03	 7.06300E+03
 4.23691E+03	 7.05350E+03
 4.23946E+03	 7.14500E+03
 4.24200E+03	 7.10650E+03
 4.24455E+03	 7.15600E+03
 4.24709E+03	 7.29900E+03
 4.24963E+03	 7.21250E+03
 4.25217E+03	 7.28450E+03
 4.25472E+03	 7.30900E+03
 4.25726E+03	 7.39250E+03
 4.25980E+03	 7.39750E+03
 4.26234E+03	 7.39100E+03
 4.26487E+03	 7.53050E+03
 4.26741E+03	 7.32450E+03
 4.26995E+03	 7.41900E+03
 4.27249E+03	 7.52600E+03
 4.27502E+03	 7.54800E+03
 4.27756E+03	 7.51300E+03
 4.28009E+03	 7.49650E+03
 4.28262E+03	 7.42750E+03
 4.28515E+03	 7.71900E+03
 4.28769E+03	 7.53100E+03
 4.29022E+03	 7.70700E+03
 4.29275E+03	 7.64700E+03
 4.29528E+03	 7.62650E+03
 4.29780E+03	 7.67450E+03
 4.30033E+03	 7.73400E+03
 4.30286E+03	 7.70050E+03
 4.30539E+03	 7.77700E+03
 4.30791E+03	 7.66550E+03
 4.31044E+03	 7.74850E+03
 4.31296E+03	 7.59700E+03
 4.31548E+03	 7.77300E+03
 4.31801E+03	 7.83250E+03
 4.32053E+03	 7.87850E+03
 4.32305E+03	 7.84550E+03
 4.32557E+03	 7.91950E+03
 4.32809E+03	 7.83750E+03
 4.33061E+03	 7.85500E+03
 4.33313E+03	 7.86700E+03
 4.33564E+03	 7.86750E+03
 4.33816E+03	 7.85000E+03
 4.34068E+03	 7.87050E+03
 4.34319E+03	 7.89350E+03
 4.34571E+03	 7.83300E+03
 4.34822E+03	 8.03500E+03
 4.35073E+03	 8.03250E+03
 4.35324E+03	 8.00950E+03
 4.35576E+03	 7.92700E+03
 4.35827E+03	 7.97000E+03
 4.36078E+03	 8.18300E+03
 4.36329E+03	 7.91400E+03
 4.36579E+03	 7.92750E+03
 4.36830E+03	 7.95200E+03
 4.37081E+03	 8.01650E+03
 4.37331E+03	 8.10550E+03
 4.37582E+03	 7.88800E+03
 4.37832E+03	 7.97000E+03
 4.38083E+03	 8.12750E+03
 4.38333E+03	 7.81950E+03
 4.38583E+03	 7.90600E+03
 4.38834E+03	 7.89900E+03
 4.39084E+03	 7.95550E+03
 4.39334E+03	 7.99850E+03
 4.39584E+03	 7.94400E+03
 4.39833E+03	 7.98100E+03
 4.40083E+03	 8.09700E+03
 4.40333E+03	 7.94300E+03
 4.40583E+03	 7.88000E+03
 4.40832E+03	 7.95100E+03
 4.41082E+03	 8.03200E+03
 4.41331E+03	 7.95950E+03
 4.41581E+03	 7.95850E+03
 4.41830E+03	 8.01000E+03
 4.42079E+03	 7.99850E+03
 4.42328E+03	 7.96150E+03
 4.42577E+03	 7.88700E+03
 4.42826E+03	 7.81150E+03
 4.43075E+03	 7.96400E+03
 4.43324E+03	 8.01150E+03
 4.43573E+03	 8.04100E+03
 4.43821E+03	 7.96550E+03
 4.44070E+03	 8.06700E+03
 4.44319E+03	 7.87500E+03
 4.44567E+03	 7.92600E+03
 4.44816E+03	 7.75850E+03
 4.45064E+03	 7.93500E+03
 4.45312E+03	 7.83750E+03
 4.45560E+03	 7.94800E+03
 4.45808E+03	 7.88800E+03
 4.46056E+03	 7.83450E+03
 4.46304E+03	 7.88200E+03
 4.46552E+03	 7.91050E+03
 4.46800E+03	 7.89300E+03
 4.47048E+03	 7.85500E+03
 4.47296E+03	 7.85300E+03
 4.47543E+03	 7.87700E+03
 4.47791E+03	 7.92050E+03
 4.48038E+03	 7.84200E+03
 4.48286E+03	 7.77850E+03
 4.48533E+03	 7.75150E+03
 4.48780E+03	 7.68400E+03
 4.49027E+03	 7.73750E+03
 4.49274E+03	 7.78300E+03
 4.49521E+03	 7.82300E+03
 4.49768E+03	 7.97950E+03
 4.50015E+03	 7.78750E+03
 4.50262E+03	 7.61250E+03
 4.50509E+03	 7.73100E+03
 4.50755E+03	 7.63350E+03
 4.51002E+03	 7.58700E+03
 4.51248E+03	 7.51950E+03
 4.51495E+03	 7.79650E+03
 4.51741E+03	 7.65200E+03
 4.51988E+03	 7.64500E+03
 4.52234E+03	 7.69400E+03
 4.52480E+03	 7.67450E+03
 4.52726E+03	 7.75000E+03
 4.52972E+03	 7.57400E+03
 4.53218E+03	 7.68250E+03
 4.53464E+03	 7.58250E+03
 4.53710E+03	 7.58950E+03
 4.53955E+03	 7.71650E+03
 4.54201E+03	 7.61150E+03
 4.54447E+03	 7.61100E+03
 4.54692E+03	 7.56500E+03
 4.54937E+03	 7.70700E+03
 4.55183E+03	 7.62700E+03
 4.55428E+03	 7.60300E+03
 4.55673E+03	 7.63250E+03
 4.55919E+03	 7.60500E+03
 4.56164E+03	 7.60850E+03
 4.56409E+03	 7.66550E+03
 4.56654E+03	 7.66550E+03
 4.56898E+03	 7.69700E+03
 4.57143E+03	 7.60500E+03
 4.57388E+03	 7.65650E+03
 4.57633E+03	 7.72150E+03
 4.57877E+03	 7.75150E+03
 4.58122E+03	 7.56450E+03
 4.58366E+03	 7.63850E+03
 4.58610E+03	 7.69400E+03
 4.58855E+03	 7.67100E+03
 4.59099E+03	 7.75700E+03
 4.59343E+03	 7.78050E+03
 4.59587E+03	 7.72250E+03
 4.59831E+03	 7.71300E+03
 4.60075E+03	 7.76000E+03
 4.60319E+03	 7.73000E+03
 4.60563E+03	 7.68500E+03
 4.60806E+03	 7.72950E+03
 4.61050E+03	 7.73450E+03
 4.61294E+03	 7.82800E+03
 4.61537E+03	 7.82150E+03
 4.61781E+03	 7.78550E+03
 4.62024E+03	 7.76600E+03
 4.62267E+03	 7.90400E+03
 4.62511E+03	 7.81600E+03
 4.62754E+03	 7.96700E+03
 4.62997E+03	 7.80950E+03
 4.63240E+03	 7.94300E+03
 4.63483E+03	 7.91600E+03
 4.63726E+03	 7.92550E+03
 4.63968E+03	 7.89600E+03
 4.64211E+03	 8.05650E+03
 4.64454E+03	 8.10050E+03
 4.64696E+03	 8.07000E+03
 4.64939E+03	 8.14600E+03
 4.65181E+03	 8.16000E+03
 4.65424E+03	 8.13600E+03
 4.65666E+03	 8.25900E+03
 4.65908E+03	 8.17300E+03
 4.66150E+03	 8.30500E+03
 4.66393E+03	 8.24300E+03
 4.66635E+03	 8.19350E+03
 4.66876E+03	 8.19250E+03
 4.67118E+03	 8.11300E+03
 4.67360E+03	 8.28850E+03
 4.67602E+03	 8.37100E+03
 4.67844E+03	 8.44100E+03
 4.68085E+03	 8.35900E+03
 4.68327E+03	 8.29350E+03
 4.68568E+03	 8.38250E+03
 4.68810E+03	 8.32500E+03
 4.69051E+03	 8.41350E+03
 4.69292E+03	 8.42550E+03
 4.69533E+03	 8.48600E+03
 4.69775E+03	 8.39750E+03
 4.70016E+03	 8.54250E+03
 4.70257E+03	 8.51050E+03
 4.70497E+03	 8.64150E+03
 4.70738E+03	 8.55300E+03
 4.70979E+03	 8.47400E+03
 4.71220E+03	 8.67450E+03
 4.71460E+03	 8.51450E+03
 4.71701E+03	 8.55350E+03
 4.71941E+03	 8.71200E+03
 4.72182E+03	 8.81750E+03
 4.72422E+03	 8.75200E+03
 4.72663E+03	 8.72500E+03
 4.72903E+03	 8.89250E+03
 4.73143E+03	 8.75000E+03
 4.73383E+03	 8.95000E+03
 4.73623E+03	 8.85850E+03
 4.73863E+03	 9.12050E+03
 4.74103E+03	 9.10700E+03
 4.74343E+03	 9.22200E+03
 4.74582E+03	 9.17950E+03
 4.74822E+03	 8.97950E+03
 4.75062E+03	 9.28300E+03
 4.75301E+03	 9.17600E+03
 4.75541E+03	 9.18100E+03
 4.75780E+03	 9.22500E+03
 4.76019E+03	 9.29600E+03
 4.76258E+03	 9.46300E+03
