-3.95948E+01	 1.19000E+03
-3.84401E+01	 1.20700E+03
-3.72856E+01	 1.19700E+03
-3.61313E+01	 1.19350E+03
-3.49771E+01	 1.19450E+03
-3.38232E+01	 1.19450E+03
-3.26694E+01	 1.19750E+03
-3.15158E+01	 1.19700E+03
-3.03625E+01	 1.19200E+03
-2.92093E+01	 1.20200E+03
-2.80562E+01	 1.18900E+03
-2.69034E+01	 1.18750E+03
-2.57507E+01	 1.19500E+03
-2.45983E+01	 1.18750E+03
-2.34460E+01	 1.19900E+03
-2.22939E+01	 1.19550E+03
-2.11420E+01	 1.19400E+03
-1.99903E+01	 1.21650E+03
-1.88387E+01	 1.19200E+03
-1.76873E+01	 1.18400E+03
-1.65362E+01	 1.20400E+03
-1.53852E+01	 1.19000E+03
-1.42344E+01	 1.19800E+03
-1.30837E+01	 1.20500E+03
-1.19333E+01	 1.19850E+03
-1.07831E+01	 1.19500E+03
-9.63298E+00	 1.19250E+03
-8.48309E+00	 1.19950E+03
-7.33338E+00	 1.20200E+03
-6.18386E+00	 1.21700E+03
-5.03452E+00	 1.24250E+03
-3.88537E+00	 1.59700E+03
-2.73640E+00	 3.28650E+03
-1.58761E+00	 6.23050E+03
-4.39005E-01	 6.89400E+03
 7.09416E-01	 3.88950E+03
 1.85765E+00	 1.74700E+03
 3.00571E+00	 1.25700E+03
 4.15358E+00	 1.20350E+03
 5.30127E+00	 1.20300E+03
 6.44878E+00	 1.19450E+03
 7.59610E+00	 1.19350E+03
 8.74324E+00	 1.19850E+03
 9.89020E+00	 1.19850E+03
 1.10370E+01	 1.19750E+03
 1.21836E+01	 1.19900E+03
 1.33300E+01	 1.19800E+03
 1.44762E+01	 1.20050E+03
 1.56223E+01	 1.20150E+03
 1.67681E+01	 1.19250E+03
 1.79138E+01	 1.19800E+03
 1.90593E+01	 1.19150E+03
 2.02046E+01	 1.19250E+03
 2.13497E+01	 1.18850E+03
 2.24947E+01	 1.19350E+03
 2.36395E+01	 1.19750E+03
 2.47841E+01	 1.20350E+03
 2.59285E+01	 1.20550E+03
 2.70727E+01	 1.20750E+03
 2.82167E+01	 1.20550E+03
 2.93606E+01	 1.19950E+03
 3.05043E+01	 1.19450E+03
 3.16478E+01	 1.19900E+03
 3.27911E+01	 1.18950E+03
 3.39342E+01	 1.19250E+03
 3.50772E+01	 1.19200E+03
 3.62200E+01	 1.19300E+03
 3.73625E+01	 1.19550E+03
 3.85050E+01	 1.18850E+03
 3.96472E+01	 1.19800E+03
 4.07892E+01	 1.19650E+03
 4.19311E+01	 1.19100E+03
 4.30728E+01	 1.19500E+03
 4.42143E+01	 1.19950E+03
 4.53556E+01	 1.19350E+03
 4.64968E+01	 1.20050E+03
 4.76377E+01	 1.19650E+03
 4.87785E+01	 1.19300E+03
 4.99191E+01	 1.19800E+03
 5.10595E+01	 1.19450E+03
 5.21998E+01	 1.18550E+03
 5.33398E+01	 1.19500E+03
 5.44797E+01	 1.19200E+03
 5.56194E+01	 1.19900E+03
 5.67589E+01	 1.18950E+03
 5.78983E+01	 1.19150E+03
 5.90375E+01	 1.19950E+03
 6.01764E+01	 1.19750E+03
 6.13152E+01	 1.18850E+03
 6.24539E+01	 1.19400E+03
 6.35923E+01	 1.19900E+03
 6.47306E+01	 1.19350E+03
 6.58686E+01	 1.19350E+03
 6.70065E+01	 1.19950E+03
 6.81443E+01	 1.18800E+03
 6.92818E+01	 1.19850E+03
 7.04192E+01	 1.19100E+03
 7.15564E+01	 1.19850E+03
 7.26934E+01	 1.20150E+03
 7.38302E+01	 1.19550E+03
 7.49668E+01	 1.19750E+03
 7.61033E+01	 1.21500E+03
 7.72396E+01	 1.20350E+03
 7.83757E+01	 1.20750E+03
 7.95116E+01	 1.21600E+03
 8.06474E+01	 1.24650E+03
 8.17830E+01	 1.24650E+03
 8.29184E+01	 1.27200E+03
 8.40536E+01	 1.26250E+03
 8.51886E+01	 1.28600E+03
 8.63235E+01	 1.25800E+03
 8.74582E+01	 1.26750E+03
 8.85927E+01	 1.26650E+03
 8.97270E+01	 1.29200E+03
 9.08611E+01	 1.27850E+03
 9.19951E+01	 1.26900E+03
 9.31289E+01	 1.27150E+03
 9.42625E+01	 1.27250E+03
 9.53959E+01	 1.31050E+03
 9.65292E+01	 1.27600E+03
 9.76623E+01	 1.26800E+03
 9.87952E+01	 1.28650E+03
 9.99279E+01	 1.28250E+03
 1.01060E+02	 1.28000E+03
 1.02193E+02	 1.30350E+03
 1.03325E+02	 1.26650E+03
 1.04457E+02	 1.26750E+03
 1.05589E+02	 1.28250E+03
 1.06720E+02	 1.27450E+03
 1.07852E+02	 1.27250E+03
 1.08983E+02	 1.29100E+03
 1.10114E+02	 1.28000E+03
 1.11245E+02	 1.27400E+03
 1.12376E+02	 1.29950E+03
 1.13507E+02	 1.27500E+03
 1.14637E+02	 1.28700E+03
 1.15767E+02	 1.27950E+03
 1.16897E+02	 1.25800E+03
 1.18027E+02	 1.32250E+03
 1.19157E+02	 1.27150E+03
 1.20287E+02	 1.28600E+03
 1.21416E+02	 1.26850E+03
 1.22545E+02	 1.28800E+03
 1.23674E+02	 1.28150E+03
 1.24803E+02	 1.28100E+03
 1.25932E+02	 1.27700E+03
 1.27060E+02	 1.29050E+03
 1.28188E+02	 1.28400E+03
 1.29316E+02	 1.28800E+03
 1.30444E+02	 1.27200E+03
 1.31572E+02	 1.31100E+03
 1.32700E+02	 1.29650E+03
 1.33827E+02	 1.28550E+03
 1.34954E+02	 1.27950E+03
 1.36081E+02	 1.28500E+03
 1.37208E+02	 1.27250E+03
 1.38335E+02	 1.28400E+03
 1.39462E+02	 1.29000E+03
 1.40588E+02	 1.28600E+03
 1.41714E+02	 1.28100E+03
 1.42840E+02	 1.27100E+03
 1.43966E+02	 1.30450E+03
 1.45092E+02	 1.29550E+03
 1.46217E+02	 1.28250E+03
 1.47342E+02	 1.27400E+03
 1.48468E+02	 1.27150E+03
 1.49593E+02	 1.28850E+03
 1.50717E+02	 1.31350E+03
 1.51842E+02	 1.28900E+03
 1.52966E+02	 1.28550E+03
 1.54091E+02	 1.30000E+03
 1.55215E+02	 1.28800E+03
 1.56339E+02	 1.31450E+03
 1.57462E+02	 1.28800E+03
 1.58586E+02	 1.28000E+03
 1.59709E+02	 1.28600E+03
 1.60832E+02	 1.28350E+03
 1.61956E+02	 1.28500E+03
 1.63078E+02	 1.29050E+03
 1.64201E+02	 1.28450E+03
 1.65324E+02	 1.30450E+03
 1.66446E+02	 1.29650E+03
 1.67568E+02	 1.31150E+03
 1.68690E+02	 1.27650E+03
 1.69812E+02	 1.30250E+03
 1.70934E+02	 1.28400E+03
 1.72055E+02	 1.29000E+03
 1.73176E+02	 1.30650E+03
 1.74297E+02	 1.28200E+03
 1.75418E+02	 1.30050E+03
 1.76539E+02	 1.32000E+03
 1.77660E+02	 1.29750E+03
 1.78780E+02	 1.30100E+03
 1.79900E+02	 1.29750E+03
 1.81020E+02	 1.29850E+03
 1.82140E+02	 1.29850E+03
 1.83260E+02	 1.30050E+03
 1.84380E+02	 1.29500E+03
 1.85499E+02	 1.31200E+03
 1.86618E+02	 1.28800E+03
 1.87737E+02	 1.29600E+03
 1.88856E+02	 1.29150E+03
 1.89975E+02	 1.28750E+03
 1.91093E+02	 1.29100E+03
 1.92212E+02	 1.29700E+03
 1.93330E+02	 1.31350E+03
 1.94448E+02	 1.29750E+03
 1.95566E+02	 1.29300E+03
 1.96683E+02	 1.29150E+03
 1.97801E+02	 1.31000E+03
 1.98918E+02	 1.30150E+03
 2.00035E+02	 1.30800E+03
 2.01152E+02	 1.30250E+03
 2.02269E+02	 1.30900E+03
 2.03386E+02	 1.29650E+03
 2.04502E+02	 1.31300E+03
 2.05618E+02	 1.29900E+03
 2.06735E+02	 1.28950E+03
 2.07850E+02	 1.31250E+03
 2.08966E+02	 1.29900E+03
 2.10082E+02	 1.29350E+03
 2.11197E+02	 1.30750E+03
 2.12312E+02	 1.30250E+03
 2.13428E+02	 1.29450E+03
 2.14542E+02	 1.32450E+03
 2.15657E+02	 1.30000E+03
 2.16772E+02	 1.28550E+03
 2.17886E+02	 1.31300E+03
 2.19000E+02	 1.31500E+03
 2.20114E+02	 1.32400E+03
 2.21228E+02	 1.30200E+03
 2.22342E+02	 1.31300E+03
 2.23455E+02	 1.31550E+03
 2.24569E+02	 1.30450E+03
 2.25682E+02	 1.30100E+03
 2.26795E+02	 1.32250E+03
 2.27908E+02	 1.31150E+03
 2.29021E+02	 1.30350E+03
 2.30133E+02	 1.33000E+03
 2.31245E+02	 1.30300E+03
 2.32358E+02	 1.32150E+03
 2.33470E+02	 1.30200E+03
 2.34581E+02	 1.31550E+03
 2.35693E+02	 1.31400E+03
 2.36804E+02	 1.31500E+03
 2.37916E+02	 1.29800E+03
 2.39027E+02	 1.32650E+03
 2.40138E+02	 1.29850E+03
 2.41249E+02	 1.30600E+03
 2.42359E+02	 1.31450E+03
 2.43470E+02	 1.31850E+03
 2.44580E+02	 1.32000E+03
 2.45690E+02	 1.31400E+03
 2.46800E+02	 1.30150E+03
 2.47910E+02	 1.30450E+03
 2.49019E+02	 1.30150E+03
 2.50129E+02	 1.30250E+03
 2.51238E+02	 1.32450E+03
 2.52347E+02	 1.31350E+03
 2.53456E+02	 1.31200E+03
 2.54565E+02	 1.30900E+03
 2.55674E+02	 1.30950E+03
 2.56782E+02	 1.29650E+03
 2.57890E+02	 1.30250E+03
 2.58998E+02	 1.31200E+03
 2.60106E+02	 1.29900E+03
 2.61214E+02	 1.30850E+03
 2.62322E+02	 1.30150E+03
 2.63429E+02	 1.31800E+03
 2.64536E+02	 1.32150E+03
 2.65643E+02	 1.31750E+03
 2.66750E+02	 1.30600E+03
 2.67857E+02	 1.32800E+03
 2.68963E+02	 1.32850E+03
 2.70070E+02	 1.31550E+03
 2.71176E+02	 1.31900E+03
 2.72282E+02	 1.33750E+03
 2.73388E+02	 1.32450E+03
 2.74494E+02	 1.32250E+03
 2.75599E+02	 1.32900E+03
 2.76705E+02	 1.32150E+03
 2.77810E+02	 1.30250E+03
 2.78915E+02	 1.30300E+03
 2.80020E+02	 1.32300E+03
 2.81124E+02	 1.32300E+03
 2.82229E+02	 1.32350E+03
 2.83333E+02	 1.31050E+03
 2.84437E+02	 1.30750E+03
 2.85542E+02	 1.32050E+03
 2.86645E+02	 1.31550E+03
 2.87749E+02	 1.31050E+03
 2.88853E+02	 1.30150E+03
 2.89956E+02	 1.31000E+03
 2.91059E+02	 1.30150E+03
 2.92162E+02	 1.31950E+03
 2.93265E+02	 1.31250E+03
 2.94368E+02	 1.30250E+03
 2.95470E+02	 1.30450E+03
 2.96573E+02	 1.31400E+03
 2.97675E+02	 1.31600E+03
 2.98777E+02	 1.31800E+03
 2.99879E+02	 1.32550E+03
 3.00980E+02	 1.31300E+03
 3.02082E+02	 1.30900E+03
 3.03183E+02	 1.32550E+03
 3.04284E+02	 1.30900E+03
 3.05385E+02	 1.31200E+03
 3.06486E+02	 1.31100E+03
 3.07587E+02	 1.30900E+03
 3.08687E+02	 1.31050E+03
 3.09788E+02	 1.32050E+03
 3.10888E+02	 1.31000E+03
 3.11988E+02	 1.33600E+03
 3.13088E+02	 1.31100E+03
 3.14187E+02	 1.33600E+03
 3.15287E+02	 1.31100E+03
 3.16386E+02	 1.32850E+03
 3.17486E+02	 1.33700E+03
 3.18585E+02	 1.31350E+03
 3.19683E+02	 1.32050E+03
 3.20782E+02	 1.32050E+03
 3.21881E+02	 1.33850E+03
 3.22979E+02	 1.31450E+03
 3.24077E+02	 1.32800E+03
 3.25175E+02	 1.33100E+03
 3.26273E+02	 1.31800E+03
 3.27371E+02	 1.31200E+03
 3.28468E+02	 1.32200E+03
 3.29566E+02	 1.31650E+03
 3.30663E+02	 1.30850E+03
 3.31760E+02	 1.33400E+03
 3.32857E+02	 1.32450E+03
 3.33953E+02	 1.33150E+03
 3.35050E+02	 1.31300E+03
 3.36146E+02	 1.32000E+03
 3.37242E+02	 1.32200E+03
 3.38338E+02	 1.30450E+03
 3.39434E+02	 1.31350E+03
 3.40530E+02	 1.32050E+03
 3.41626E+02	 1.31400E+03
 3.42721E+02	 1.31000E+03
 3.43816E+02	 1.32300E+03
 3.44911E+02	 1.33400E+03
 3.46006E+02	 1.31500E+03
 3.47101E+02	 1.32400E+03
 3.48195E+02	 1.33150E+03
 3.49290E+02	 1.33750E+03
 3.50384E+02	 1.33650E+03
 3.51478E+02	 1.32250E+03
 3.52572E+02	 1.33750E+03
 3.53665E+02	 1.34350E+03
 3.54759E+02	 1.31250E+03
 3.55852E+02	 1.31600E+03
 3.56946E+02	 1.31950E+03
 3.58039E+02	 1.34500E+03
 3.59132E+02	 1.36550E+03
 3.60224E+02	 1.85300E+03
 3.61317E+02	 1.45050E+03
 3.62409E+02	 1.34500E+03
 3.63502E+02	 1.34500E+03
 3.64594E+02	 1.34400E+03
 3.65686E+02	 1.35300E+03
 3.66777E+02	 1.36350E+03
 3.67869E+02	 1.38150E+03
 3.68960E+02	 1.36850E+03
 3.70052E+02	 1.39200E+03
 3.71143E+02	 1.37950E+03
 3.72234E+02	 1.46900E+03
 3.73324E+02	 1.54250E+03
 3.74415E+02	 1.65800E+03
 3.75505E+02	 1.99800E+03
 3.76596E+02	 2.64650E+03
 3.77686E+02	 3.23600E+03
 3.78776E+02	 3.26600E+03
 3.79866E+02	 2.52350E+03
 3.80955E+02	 1.92800E+03
 3.82045E+02	 1.64350E+03
 3.83134E+02	 1.52100E+03
 3.84223E+02	 1.46600E+03
 3.85312E+02	 1.46000E+03
 3.86401E+02	 1.42150E+03
 3.87489E+02	 1.41950E+03
 3.88578E+02	 1.40400E+03
 3.89666E+02	 1.39750E+03
 3.90754E+02	 1.37800E+03
 3.91842E+02	 1.39150E+03
 3.92930E+02	 1.39600E+03
 3.94018E+02	 1.38850E+03
 3.95105E+02	 1.39350E+03
 3.96193E+02	 1.37400E+03
 3.97280E+02	 1.39150E+03
 3.98367E+02	 1.38950E+03
 3.99454E+02	 1.39050E+03
 4.00541E+02	 1.40000E+03
 4.01627E+02	 1.41300E+03
 4.02713E+02	 1.40750E+03
 4.03800E+02	 1.42900E+03
 4.04886E+02	 1.42850E+03
 4.05972E+02	 1.48200E+03
 4.07057E+02	 1.49300E+03
 4.08143E+02	 1.48250E+03
 4.09228E+02	 1.60100E+03
 4.10313E+02	 1.60150E+03
 4.11399E+02	 1.82800E+03
 4.12483E+02	 2.14600E+03
 4.13568E+02	 2.94200E+03
 4.14653E+02	 4.69500E+03
 4.15737E+02	 7.09150E+03
 4.16822E+02	 8.19500E+03
 4.17906E+02	 6.51800E+03
 4.18990E+02	 3.93900E+03
 4.20073E+02	 2.50800E+03
 4.21157E+02	 1.95350E+03
 4.22240E+02	 1.71950E+03
 4.23324E+02	 1.68450E+03
 4.24407E+02	 1.60700E+03
 4.25490E+02	 1.64500E+03
 4.26573E+02	 1.68800E+03
 4.27655E+02	 1.84850E+03
 4.28738E+02	 1.94500E+03
 4.29820E+02	 1.97650E+03
 4.30902E+02	 1.87050E+03
 4.31984E+02	 1.74200E+03
 4.33066E+02	 1.60850E+03
 4.34148E+02	 1.49800E+03
 4.35229E+02	 1.48150E+03
 4.36311E+02	 1.42500E+03
 4.37392E+02	 1.44150E+03
 4.38473E+02	 1.39800E+03
 4.39554E+02	 1.38450E+03
 4.40635E+02	 1.36550E+03
 4.41715E+02	 1.38300E+03
 4.42796E+02	 1.38950E+03
 4.43876E+02	 1.38700E+03
 4.44956E+02	 1.38250E+03
 4.46036E+02	 1.41900E+03
 4.47116E+02	 1.42050E+03
 4.48195E+02	 1.45300E+03
 4.49275E+02	 1.42950E+03
 4.50354E+02	 1.40450E+03
 4.51433E+02	 1.38850E+03
 4.52512E+02	 1.37900E+03
 4.53591E+02	 1.38600E+03
 4.54670E+02	 1.33650E+03
 4.55748E+02	 1.36900E+03
 4.56826E+02	 1.34700E+03
 4.57905E+02	 1.35150E+03
 4.58983E+02	 1.34950E+03
 4.60060E+02	 1.36050E+03
 4.61138E+02	 1.35900E+03
 4.62216E+02	 1.34300E+03
 4.63293E+02	 1.34850E+03
 4.64370E+02	 1.33800E+03
 4.65447E+02	 1.33650E+03
 4.66524E+02	 1.36200E+03
 4.67601E+02	 1.35150E+03
 4.68678E+02	 1.35150E+03
 4.69754E+02	 1.34000E+03
 4.70830E+02	 1.33850E+03
 4.71906E+02	 1.35050E+03
 4.72982E+02	 1.35450E+03
 4.74058E+02	 1.34200E+03
 4.75134E+02	 1.34200E+03
 4.76209E+02	 1.33550E+03
 4.77285E+02	 1.34700E+03
 4.78360E+02	 1.34400E+03
 4.79435E+02	 1.35250E+03
 4.80509E+02	 1.32750E+03
 4.81584E+02	 1.34700E+03
 4.82659E+02	 1.33850E+03
 4.83733E+02	 1.35050E+03
 4.84807E+02	 1.33600E+03
 4.85881E+02	 1.34700E+03
 4.86955E+02	 1.34800E+03
 4.88029E+02	 1.36100E+03
 4.89103E+02	 1.34700E+03
 4.90176E+02	 1.35250E+03
 4.91249E+02	 1.36150E+03
 4.92322E+02	 1.35050E+03
 4.93395E+02	 1.35700E+03
 4.94468E+02	 1.34050E+03
 4.95541E+02	 1.36150E+03
 4.96613E+02	 1.34800E+03
 4.97685E+02	 1.33400E+03
 4.98758E+02	 1.34100E+03
 4.99830E+02	 1.34800E+03
 5.00901E+02	 1.35550E+03
 5.01973E+02	 1.33700E+03
 5.03045E+02	 1.33300E+03
 5.04116E+02	 1.35150E+03
 5.05187E+02	 1.34600E+03
 5.06258E+02	 1.35850E+03
 5.07329E+02	 1.35000E+03
 5.08400E+02	 1.34000E+03
 5.09470E+02	 1.34750E+03
 5.10541E+02	 1.34200E+03
 5.11611E+02	 1.36600E+03
 5.12681E+02	 1.34900E+03
 5.13751E+02	 1.35250E+03
 5.14821E+02	 1.37000E+03
 5.15891E+02	 1.33650E+03
 5.16960E+02	 1.35900E+03
 5.18029E+02	 1.36950E+03
 5.19099E+02	 1.35900E+03
 5.20168E+02	 1.36300E+03
 5.21237E+02	 1.34500E+03
 5.22305E+02	 1.37600E+03
 5.23374E+02	 1.34700E+03
 5.24442E+02	 1.34500E+03
 5.25510E+02	 1.35500E+03
 5.26579E+02	 1.35600E+03
 5.27646E+02	 1.38200E+03
 5.28714E+02	 1.34250E+03
 5.29782E+02	 1.36900E+03
 5.30849E+02	 1.36150E+03
 5.31917E+02	 1.37300E+03
 5.32984E+02	 1.34550E+03
 5.34051E+02	 1.35200E+03
 5.35118E+02	 1.34800E+03
 5.36184E+02	 1.36000E+03
 5.37251E+02	 1.36750E+03
 5.38317E+02	 1.35450E+03
 5.39383E+02	 1.36800E+03
 5.40449E+02	 1.37300E+03
 5.41515E+02	 1.37300E+03
 5.42581E+02	 1.35350E+03
 5.43647E+02	 1.36800E+03
 5.44712E+02	 1.37150E+03
 5.45777E+02	 1.36550E+03
 5.46842E+02	 1.36750E+03
 5.47907E+02	 1.38050E+03
 5.48972E+02	 1.35800E+03
 5.50037E+02	 1.34550E+03
 5.51101E+02	 1.35650E+03
 5.52166E+02	 1.36000E+03
 5.53230E+02	 1.34650E+03
 5.54294E+02	 1.35100E+03
 5.55358E+02	 1.39200E+03
 5.56422E+02	 1.36900E+03
 5.57485E+02	 1.35350E+03
 5.58549E+02	 1.37000E+03
 5.59612E+02	 1.38450E+03
 5.60675E+02	 1.39150E+03
 5.61738E+02	 1.36750E+03
 5.62801E+02	 1.36550E+03
 5.63863E+02	 1.36150E+03
 5.64926E+02	 1.36500E+03
 5.65988E+02	 1.35400E+03
 5.67050E+02	 1.38900E+03
 5.68112E+02	 1.37850E+03
 5.69174E+02	 1.37050E+03
 5.70236E+02	 1.38300E+03
 5.71298E+02	 1.39800E+03
 5.72359E+02	 1.41700E+03
 5.73420E+02	 1.45750E+03
 5.74481E+02	 1.47750E+03
 5.75542E+02	 1.53550E+03
 5.76603E+02	 1.56200E+03
 5.77664E+02	 1.50000E+03
 5.78724E+02	 1.44700E+03
 5.79785E+02	 1.41150E+03
 5.80845E+02	 1.40000E+03
 5.81905E+02	 1.36750E+03
 5.82965E+02	 1.37200E+03
 5.84025E+02	 1.38550E+03
 5.85084E+02	 1.37450E+03
 5.86144E+02	 1.37900E+03
 5.87203E+02	 1.35550E+03
 5.88262E+02	 1.36500E+03
 5.89321E+02	 1.37250E+03
 5.90380E+02	 1.38250E+03
 5.91438E+02	 1.34650E+03
 5.92497E+02	 1.36600E+03
 5.93555E+02	 1.36000E+03
 5.94613E+02	 1.36350E+03
 5.95671E+02	 1.35850E+03
 5.96729E+02	 1.37700E+03
 5.97787E+02	 1.36100E+03
 5.98845E+02	 1.38950E+03
 5.99902E+02	 1.38150E+03
 6.00959E+02	 1.36200E+03
 6.02017E+02	 1.36950E+03
 6.03074E+02	 1.38200E+03
 6.04130E+02	 1.36550E+03
 6.05187E+02	 1.37750E+03
 6.06244E+02	 1.37850E+03
 6.07300E+02	 1.37900E+03
 6.08356E+02	 1.38750E+03
 6.09412E+02	 1.39150E+03
 6.10468E+02	 1.37250E+03
 6.11524E+02	 1.37050E+03
 6.12579E+02	 1.38950E+03
 6.13635E+02	 1.37800E+03
 6.14690E+02	 1.36650E+03
 6.15745E+02	 1.39800E+03
 6.16800E+02	 1.39800E+03
 6.17855E+02	 1.38800E+03
 6.18910E+02	 1.38900E+03
 6.19965E+02	 1.38450E+03
 6.21019E+02	 1.39550E+03
 6.22073E+02	 1.38450E+03
 6.23127E+02	 1.39850E+03
 6.24181E+02	 1.39550E+03
 6.25235E+02	 1.40050E+03
 6.26289E+02	 1.44450E+03
 6.27342E+02	 1.40700E+03
 6.28395E+02	 1.38750E+03
 6.29449E+02	 1.40500E+03
 6.30502E+02	 1.43950E+03
 6.31555E+02	 1.45900E+03
 6.32607E+02	 1.45400E+03
 6.33660E+02	 1.49350E+03
 6.34712E+02	 1.49150E+03
 6.35765E+02	 1.57200E+03
 6.36817E+02	 1.55750E+03
 6.37869E+02	 1.66750E+03
 6.38921E+02	 1.71500E+03
 6.39972E+02	 1.87350E+03
 6.41024E+02	 2.07000E+03
 6.42075E+02	 2.17700E+03
 6.43126E+02	 2.33550E+03
 6.44177E+02	 2.36000E+03
 6.45228E+02	 2.30500E+03
 6.46279E+02	 2.14300E+03
 6.47330E+02	 1.93500E+03
 6.48380E+02	 1.82150E+03
 6.49431E+02	 1.70900E+03
 6.50481E+02	 1.64250E+03
 6.51531E+02	 1.58300E+03
 6.52581E+02	 1.55200E+03
 6.53630E+02	 1.52000E+03
 6.54680E+02	 1.52150E+03
 6.55729E+02	 1.48500E+03
 6.56779E+02	 1.49000E+03
 6.57828E+02	 1.45300E+03
 6.58877E+02	 1.43850E+03
 6.59925E+02	 1.47250E+03
 6.60974E+02	 1.43950E+03
 6.62023E+02	 1.42400E+03
 6.63071E+02	 1.42400E+03
 6.64119E+02	 1.45050E+03
 6.65167E+02	 1.42650E+03
 6.66215E+02	 1.40350E+03
 6.67263E+02	 1.42200E+03
 6.68311E+02	 1.41100E+03
 6.69358E+02	 1.40000E+03
 6.70406E+02	 1.40800E+03
 6.71453E+02	 1.39500E+03
 6.72500E+02	 1.42500E+03
 6.73547E+02	 1.40500E+03
 6.74593E+02	 1.41050E+03
 6.75640E+02	 1.40300E+03
 6.76686E+02	 1.41150E+03
 6.77733E+02	 1.40550E+03
 6.78779E+02	 1.41250E+03
 6.79825E+02	 1.39250E+03
 6.80871E+02	 1.42200E+03
 6.81916E+02	 1.39650E+03
 6.82962E+02	 1.40750E+03
 6.84007E+02	 1.40150E+03
 6.85052E+02	 1.37450E+03
 6.86098E+02	 1.39950E+03
 6.87143E+02	 1.39600E+03
 6.88187E+02	 1.40000E+03
 6.89232E+02	 1.39550E+03
 6.90276E+02	 1.38300E+03
 6.91321E+02	 1.38900E+03
 6.92365E+02	 1.38250E+03
 6.93409E+02	 1.39050E+03
 6.94453E+02	 1.43500E+03
 6.95497E+02	 1.39600E+03
 6.96540E+02	 1.38400E+03
 6.97584E+02	 1.40250E+03
 6.98627E+02	 1.40700E+03
 6.99670E+02	 1.39750E+03
 7.00713E+02	 1.39850E+03
 7.01756E+02	 1.38750E+03
 7.02799E+02	 1.38000E+03
 7.03842E+02	 1.40850E+03
 7.04884E+02	 1.37750E+03
 7.05926E+02	 1.41200E+03
 7.06968E+02	 1.39900E+03
 7.08010E+02	 1.39000E+03
 7.09052E+02	 1.37000E+03
 7.10094E+02	 1.39500E+03
 7.11136E+02	 1.40200E+03
 7.12177E+02	 1.39700E+03
 7.13218E+02	 1.39950E+03
 7.14259E+02	 1.41300E+03
 7.15300E+02	 1.41150E+03
 7.16341E+02	 1.39050E+03
 7.17382E+02	 1.40250E+03
 7.18422E+02	 1.42850E+03
 7.19463E+02	 1.42250E+03
 7.20503E+02	 1.38600E+03
 7.21543E+02	 1.42450E+03
 7.22583E+02	 1.42200E+03
 7.23623E+02	 1.39550E+03
 7.24662E+02	 1.42900E+03
 7.25702E+02	 1.41450E+03
 7.26741E+02	 1.42450E+03
 7.27780E+02	 1.41200E+03
 7.28819E+02	 1.40000E+03
 7.29858E+02	 1.43150E+03
 7.30897E+02	 1.43000E+03
 7.31936E+02	 1.44600E+03
 7.32974E+02	 1.46750E+03
 7.34012E+02	 1.43400E+03
 7.35051E+02	 1.42750E+03
 7.36089E+02	 1.45750E+03
 7.37126E+02	 1.47200E+03
 7.38164E+02	 1.52900E+03
 7.39202E+02	 1.50750E+03
 7.40239E+02	 1.50800E+03
 7.41277E+02	 1.53050E+03
 7.42314E+02	 1.54850E+03
 7.43351E+02	 1.62700E+03
 7.44388E+02	 1.61300E+03
 7.45424E+02	 1.66450E+03
 7.46461E+02	 1.69000E+03
 7.47497E+02	 1.73550E+03
 7.48534E+02	 1.72150E+03
 7.49570E+02	 1.73900E+03
 7.50606E+02	 1.76450E+03
 7.51641E+02	 1.74450E+03
 7.52677E+02	 1.68750E+03
 7.53713E+02	 1.64000E+03
 7.54748E+02	 1.61600E+03
 7.55783E+02	 1.57100E+03
 7.56819E+02	 1.58700E+03
 7.57853E+02	 1.56100E+03
 7.58888E+02	 1.53950E+03
 7.59923E+02	 1.51350E+03
 7.60958E+02	 1.50850E+03
 7.61992E+02	 1.51050E+03
 7.63026E+02	 1.49750E+03
 7.64060E+02	 1.48850E+03
 7.65094E+02	 1.48000E+03
 7.66128E+02	 1.47850E+03
 7.67162E+02	 1.45500E+03
 7.68195E+02	 1.44650E+03
 7.69229E+02	 1.45750E+03
 7.70262E+02	 1.45750E+03
 7.71295E+02	 1.47250E+03
 7.72328E+02	 1.44050E+03
 7.73361E+02	 1.44900E+03
 7.74393E+02	 1.48200E+03
 7.75426E+02	 1.46700E+03
 7.76458E+02	 1.44600E+03
 7.77490E+02	 1.44350E+03
 7.78522E+02	 1.43250E+03
 7.79554E+02	 1.41300E+03
 7.80586E+02	 1.44300E+03
 7.81618E+02	 1.44500E+03
 7.82649E+02	 1.42300E+03
 7.83681E+02	 1.44000E+03
 7.84712E+02	 1.45600E+03
 7.85743E+02	 1.43900E+03
 7.86774E+02	 1.47600E+03
 7.87805E+02	 1.44500E+03
 7.88835E+02	 1.44850E+03
 7.89866E+02	 1.45650E+03
 7.90896E+02	 1.45350E+03
 7.91926E+02	 1.44350E+03
 7.92956E+02	 1.43700E+03
 7.93986E+02	 1.44350E+03
 7.95016E+02	 1.46550E+03
 7.96046E+02	 1.44100E+03
 7.97075E+02	 1.46600E+03
 7.98105E+02	 1.45150E+03
 7.99134E+02	 1.45700E+03
 8.00163E+02	 1.44250E+03
 8.01192E+02	 1.45750E+03
 8.02220E+02	 1.45450E+03
 8.03249E+02	 1.45400E+03
 8.04278E+02	 1.47550E+03
 8.05306E+02	 1.48050E+03
 8.06334E+02	 1.47150E+03
 8.07362E+02	 1.45300E+03
 8.08390E+02	 1.44900E+03
 8.09418E+02	 1.43800E+03
 8.10446E+02	 1.44950E+03
 8.11473E+02	 1.46750E+03
 8.12500E+02	 1.43200E+03
 8.13528E+02	 1.44750E+03
 8.14555E+02	 1.44250E+03
 8.15582E+02	 1.43550E+03
 8.16608E+02	 1.43750E+03
 8.17635E+02	 1.45700E+03
 8.18661E+02	 1.46250E+03
 8.19688E+02	 1.44400E+03
 8.20714E+02	 1.46750E+03
 8.21740E+02	 1.46850E+03
 8.22766E+02	 1.42900E+03
 8.23792E+02	 1.42450E+03
 8.24817E+02	 1.45950E+03
 8.25843E+02	 1.44200E+03
 8.26868E+02	 1.43950E+03
 8.27893E+02	 1.44400E+03
 8.28918E+02	 1.45650E+03
 8.29943E+02	 1.45200E+03
 8.30968E+02	 1.43450E+03
 8.31993E+02	 1.41950E+03
 8.33017E+02	 1.44400E+03
 8.34042E+02	 1.42650E+03
 8.35066E+02	 1.45250E+03
 8.36090E+02	 1.40450E+03
 8.37114E+02	 1.43300E+03
 8.38138E+02	 1.42550E+03
 8.39161E+02	 1.43500E+03
 8.40185E+02	 1.41900E+03
 8.41208E+02	 1.42400E+03
 8.42231E+02	 1.41700E+03
 8.43254E+02	 1.43550E+03
 8.44277E+02	 1.42800E+03
 8.45300E+02	 1.42350E+03
 8.46323E+02	 1.43200E+03
 8.47345E+02	 1.42300E+03
 8.48368E+02	 1.43600E+03
 8.49390E+02	 1.45550E+03
 8.50412E+02	 1.41250E+03
 8.51434E+02	 1.40500E+03
 8.52456E+02	 1.42800E+03
 8.53478E+02	 1.42950E+03
 8.54499E+02	 1.44650E+03
 8.55520E+02	 1.41700E+03
 8.56542E+02	 1.44450E+03
 8.57563E+02	 1.42800E+03
 8.58584E+02	 1.43750E+03
 8.59605E+02	 1.42050E+03
 8.60625E+02	 1.43500E+03
 8.61646E+02	 1.38450E+03
 8.62666E+02	 1.40450E+03
 8.63687E+02	 1.42450E+03
 8.64707E+02	 1.39650E+03
 8.65727E+02	 1.42450E+03
 8.66747E+02	 1.43700E+03
 8.67766E+02	 1.41600E+03
 8.68786E+02	 1.40950E+03
 8.69805E+02	 1.41700E+03
 8.70824E+02	 1.41900E+03
 8.71844E+02	 1.43400E+03
 8.72863E+02	 1.42350E+03
 8.73882E+02	 1.40400E+03
 8.74900E+02	 1.40200E+03
 8.75919E+02	 1.39900E+03
 8.76937E+02	 1.41750E+03
 8.77956E+02	 1.40850E+03
 8.78974E+02	 1.43300E+03
 8.79992E+02	 1.39900E+03
 8.81010E+02	 1.41150E+03
 8.82027E+02	 1.42550E+03
 8.83045E+02	 1.41650E+03
 8.84062E+02	 1.40100E+03
 8.85080E+02	 1.44750E+03
 8.86097E+02	 1.42400E+03
 8.87114E+02	 1.40100E+03
 8.88131E+02	 1.41350E+03
 8.89148E+02	 1.42600E+03
 8.90164E+02	 1.40950E+03
 8.91181E+02	 1.41150E+03
 8.92197E+02	 1.40900E+03
 8.93213E+02	 1.40700E+03
 8.94230E+02	 1.42600E+03
 8.95245E+02	 1.42800E+03
 8.96261E+02	 1.40500E+03
 8.97277E+02	 1.40950E+03
 8.98292E+02	 1.40150E+03
 8.99308E+02	 1.43150E+03
 9.00323E+02	 1.42900E+03
 9.01338E+02	 1.41500E+03
 9.02353E+02	 1.43000E+03
 9.03368E+02	 1.41550E+03
 9.04383E+02	 1.41250E+03
 9.05397E+02	 1.39550E+03
 9.06412E+02	 1.44000E+03
 9.07426E+02	 1.41100E+03
 9.08440E+02	 1.42850E+03
 9.09454E+02	 1.42500E+03
 9.10468E+02	 1.40200E+03
 9.11482E+02	 1.41800E+03
 9.12495E+02	 1.41650E+03
 9.13509E+02	 1.42900E+03
 9.14522E+02	 1.41200E+03
 9.15535E+02	 1.41400E+03
 9.16548E+02	 1.41200E+03
 9.17561E+02	 1.42450E+03
 9.18574E+02	 1.40800E+03
 9.19586E+02	 1.43050E+03
 9.20599E+02	 1.41350E+03
 9.21611E+02	 1.42350E+03
 9.22623E+02	 1.41700E+03
 9.23635E+02	 1.41850E+03
 9.24647E+02	 1.41000E+03
 9.25659E+02	 1.39850E+03
 9.26671E+02	 1.43200E+03
 9.27682E+02	 1.43000E+03
 9.28694E+02	 1.43050E+03
 9.29705E+02	 1.41000E+03
 9.30716E+02	 1.42150E+03
 9.31727E+02	 1.41000E+03
 9.32738E+02	 1.43050E+03
 9.33749E+02	 1.41750E+03
 9.34759E+02	 1.42100E+03
 9.35770E+02	 1.45300E+03
 9.36780E+02	 1.41450E+03
 9.37790E+02	 1.42700E+03
 9.38800E+02	 1.40150E+03
 9.39810E+02	 1.41600E+03
 9.40820E+02	 1.42750E+03
 9.41829E+02	 1.41750E+03
 9.42839E+02	 1.41200E+03
 9.43848E+02	 1.42600E+03
 9.44857E+02	 1.42000E+03
 9.45866E+02	 1.42600E+03
 9.46875E+02	 1.42050E+03
 9.47884E+02	 1.40800E+03
 9.48892E+02	 1.41300E+03
 9.49901E+02	 1.41900E+03
 9.50909E+02	 1.40550E+03
 9.51918E+02	 1.42400E+03
 9.52926E+02	 1.42800E+03
 9.53934E+02	 1.41350E+03
 9.54941E+02	 1.41150E+03
 9.55949E+02	 1.45250E+03
 9.56957E+02	 1.42550E+03
 9.57964E+02	 1.41350E+03
 9.58971E+02	 1.42500E+03
 9.59978E+02	 1.44100E+03
 9.60985E+02	 1.41150E+03
 9.61992E+02	 1.43400E+03
 9.62999E+02	 1.41400E+03
 9.64006E+02	 1.43350E+03
 9.65012E+02	 1.43400E+03
 9.66018E+02	 1.43050E+03
 9.67025E+02	 1.40600E+03
 9.68031E+02	 1.43450E+03
 9.69037E+02	 1.41850E+03
 9.70042E+02	 1.42400E+03
 9.71048E+02	 1.42800E+03
 9.72053E+02	 1.42800E+03
 9.73059E+02	 1.40700E+03
 9.74064E+02	 1.44000E+03
 9.75069E+02	 1.44250E+03
 9.76074E+02	 1.43550E+03
 9.77079E+02	 1.40800E+03
 9.78084E+02	 1.45250E+03
 9.79088E+02	 1.45500E+03
 9.80093E+02	 1.43750E+03
 9.81097E+02	 1.46800E+03
 9.82101E+02	 1.45050E+03
 9.83105E+02	 1.43950E+03
 9.84109E+02	 1.41850E+03
 9.85113E+02	 1.44450E+03
 9.86116E+02	 1.41700E+03
 9.87120E+02	 1.44700E+03
 9.88123E+02	 1.43850E+03
 9.89126E+02	 1.42150E+03
 9.90129E+02	 1.43550E+03
 9.91132E+02	 1.44750E+03
 9.92135E+02	 1.44650E+03
 9.93138E+02	 1.45050E+03
 9.94140E+02	 1.47800E+03
 9.95143E+02	 1.41050E+03
 9.96145E+02	 1.42800E+03
 9.97147E+02	 1.44600E+03
 9.98149E+02	 1.43500E+03
 9.99151E+02	 1.43800E+03
 1.00015E+03	 1.43800E+03
 1.00115E+03	 1.48650E+03
 1.00216E+03	 1.45500E+03
 1.00316E+03	 1.42500E+03
 1.00416E+03	 1.44600E+03
 1.00516E+03	 1.43750E+03
 1.00616E+03	 1.46150E+03
 1.00716E+03	 1.45750E+03
 1.00816E+03	 1.41800E+03
 1.00916E+03	 1.44600E+03
 1.01016E+03	 1.44200E+03
 1.01116E+03	 1.46650E+03
 1.01216E+03	 1.42700E+03
 1.01316E+03	 1.44150E+03
 1.01416E+03	 1.43600E+03
 1.01516E+03	 1.43750E+03
 1.01616E+03	 1.42600E+03
 1.01716E+03	 1.46150E+03
 1.01816E+03	 1.43300E+03
 1.01916E+03	 1.43100E+03
 1.02016E+03	 1.43850E+03
 1.02116E+03	 1.43200E+03
 1.02216E+03	 1.44700E+03
 1.02316E+03	 1.42400E+03
 1.02415E+03	 1.44650E+03
 1.02515E+03	 1.42200E+03
 1.02615E+03	 1.45400E+03
 1.02715E+03	 1.41000E+03
 1.02815E+03	 1.41250E+03
 1.02914E+03	 1.44000E+03
 1.03014E+03	 1.42950E+03
 1.03114E+03	 1.42550E+03
 1.03214E+03	 1.43400E+03
 1.03313E+03	 1.43850E+03
 1.03413E+03	 1.44500E+03
 1.03513E+03	 1.44950E+03
 1.03613E+03	 1.44150E+03
 1.03712E+03	 1.43800E+03
 1.03812E+03	 1.45600E+03
 1.03912E+03	 1.44800E+03
 1.04011E+03	 1.44400E+03
 1.04111E+03	 1.46600E+03
 1.04210E+03	 1.44400E+03
 1.04310E+03	 1.43900E+03
 1.04410E+03	 1.42350E+03
 1.04509E+03	 1.50300E+03
 1.04609E+03	 1.43450E+03
 1.04708E+03	 1.44800E+03
 1.04808E+03	 1.44950E+03
 1.04907E+03	 1.43500E+03
 1.05007E+03	 1.43000E+03
 1.05106E+03	 1.42300E+03
 1.05206E+03	 1.43750E+03
 1.05305E+03	 1.44550E+03
 1.05405E+03	 1.43800E+03
 1.05504E+03	 1.42850E+03
 1.05604E+03	 1.44050E+03
 1.05703E+03	 1.45700E+03
 1.05802E+03	 1.42700E+03
 1.05902E+03	 1.44400E+03
 1.06001E+03	 1.43950E+03
 1.06101E+03	 1.43900E+03
 1.06200E+03	 1.45700E+03
 1.06299E+03	 1.45250E+03
 1.06399E+03	 1.44900E+03
 1.06498E+03	 1.42600E+03
 1.06597E+03	 1.45800E+03
 1.06696E+03	 1.46350E+03
 1.06796E+03	 1.44750E+03
 1.06895E+03	 1.42700E+03
 1.06994E+03	 1.44150E+03
 1.07093E+03	 1.45400E+03
 1.07193E+03	 1.44350E+03
 1.07292E+03	 1.45650E+03
 1.07391E+03	 1.44650E+03
 1.07490E+03	 1.43400E+03
 1.07589E+03	 1.42600E+03
 1.07689E+03	 1.45150E+03
 1.07788E+03	 1.42450E+03
 1.07887E+03	 1.43450E+03
 1.07986E+03	 1.43300E+03
 1.08085E+03	 1.43600E+03
 1.08184E+03	 1.44900E+03
 1.08283E+03	 1.45650E+03
 1.08382E+03	 1.43200E+03
 1.08481E+03	 1.44600E+03
 1.08580E+03	 1.42100E+03
 1.08679E+03	 1.42750E+03
 1.08778E+03	 1.44500E+03
 1.08877E+03	 1.45600E+03
 1.08976E+03	 1.45750E+03
 1.09075E+03	 1.44100E+03
 1.09174E+03	 1.44050E+03
 1.09273E+03	 1.43750E+03
 1.09372E+03	 1.45850E+03
 1.09471E+03	 1.44900E+03
 1.09570E+03	 1.43400E+03
 1.09669E+03	 1.44750E+03
 1.09768E+03	 1.48450E+03
 1.09867E+03	 1.46100E+03
 1.09965E+03	 1.46150E+03
 1.10064E+03	 1.45400E+03
 1.10163E+03	 1.44350E+03
 1.10262E+03	 1.43800E+03
 1.10361E+03	 1.43550E+03
 1.10460E+03	 1.45350E+03
 1.10558E+03	 1.41900E+03
 1.10657E+03	 1.45050E+03
 1.10756E+03	 1.43650E+03
 1.10855E+03	 1.44600E+03
 1.10953E+03	 1.42500E+03
 1.11052E+03	 1.46150E+03
 1.11151E+03	 1.43450E+03
 1.11249E+03	 1.41500E+03
 1.11348E+03	 1.43950E+03
 1.11447E+03	 1.44650E+03
 1.11545E+03	 1.46350E+03
 1.11644E+03	 1.43900E+03
 1.11743E+03	 1.43500E+03
 1.11841E+03	 1.46150E+03
 1.11940E+03	 1.46950E+03
 1.12038E+03	 1.45350E+03
 1.12137E+03	 1.46350E+03
 1.12235E+03	 1.46100E+03
 1.12334E+03	 1.47600E+03
 1.12433E+03	 1.44700E+03
 1.12531E+03	 1.46450E+03
 1.12630E+03	 1.44400E+03
 1.12728E+03	 1.44400E+03
 1.12826E+03	 1.44850E+03
 1.12925E+03	 1.44400E+03
 1.13023E+03	 1.44050E+03
 1.13122E+03	 1.46600E+03
 1.13220E+03	 1.46000E+03
 1.13319E+03	 1.44700E+03
 1.13417E+03	 1.47400E+03
 1.13515E+03	 1.45150E+03
 1.13614E+03	 1.47550E+03
 1.13712E+03	 1.43650E+03
 1.13811E+03	 1.42800E+03
 1.13909E+03	 1.46950E+03
 1.14007E+03	 1.46950E+03
 1.14106E+03	 1.46200E+03
 1.14204E+03	 1.46400E+03
 1.14302E+03	 1.45100E+03
 1.14400E+03	 1.47900E+03
 1.14499E+03	 1.44300E+03
 1.14597E+03	 1.46050E+03
 1.14695E+03	 1.44150E+03
 1.14793E+03	 1.46400E+03
 1.14892E+03	 1.46950E+03
 1.14990E+03	 1.45050E+03
 1.15088E+03	 1.40000E+03
 1.15186E+03	 1.44700E+03
 1.15284E+03	 1.46050E+03
 1.15382E+03	 1.46000E+03
 1.15480E+03	 1.45250E+03
 1.15579E+03	 1.47350E+03
 1.15677E+03	 1.47600E+03
 1.15775E+03	 1.45900E+03
 1.15873E+03	 1.46750E+03
 1.15971E+03	 1.49100E+03
 1.16069E+03	 1.44350E+03
 1.16167E+03	 1.45500E+03
 1.16265E+03	 1.47200E+03
 1.16363E+03	 1.45550E+03
 1.16461E+03	 1.48000E+03
 1.16559E+03	 1.46150E+03
 1.16657E+03	 1.45200E+03
 1.16755E+03	 1.46200E+03
 1.16853E+03	 1.48850E+03
 1.16951E+03	 1.48900E+03
 1.17049E+03	 1.49600E+03
 1.17147E+03	 1.43300E+03
 1.17245E+03	 1.46800E+03
 1.17343E+03	 1.47400E+03
 1.17440E+03	 1.46600E+03
 1.17538E+03	 1.46700E+03
 1.17636E+03	 1.47400E+03
 1.17734E+03	 1.47950E+03
 1.17832E+03	 1.46000E+03
 1.17930E+03	 1.48300E+03
 1.18027E+03	 1.45300E+03
 1.18125E+03	 1.51450E+03
 1.18223E+03	 1.47500E+03
 1.18321E+03	 1.49050E+03
 1.18418E+03	 1.48350E+03
 1.18516E+03	 1.48150E+03
 1.18614E+03	 1.46900E+03
 1.18712E+03	 1.48200E+03
 1.18809E+03	 1.47900E+03
 1.18907E+03	 1.47600E+03
 1.19005E+03	 1.47650E+03
 1.19102E+03	 1.50850E+03
 1.19200E+03	 1.50600E+03
 1.19298E+03	 1.48600E+03
 1.19395E+03	 1.49650E+03
 1.19493E+03	 1.49850E+03
 1.19590E+03	 1.50800E+03
 1.19688E+03	 1.50600E+03
 1.19786E+03	 1.48700E+03
 1.19883E+03	 1.52650E+03
 1.19981E+03	 1.51800E+03
 1.20078E+03	 1.53800E+03
 1.20176E+03	 1.53500E+03
 1.20273E+03	 1.54400E+03
 1.20371E+03	 1.57750E+03
 1.20468E+03	 1.53250E+03
 1.20566E+03	 1.53650E+03
 1.20663E+03	 1.51350E+03
 1.20761E+03	 1.50800E+03
 1.20858E+03	 1.51300E+03
 1.20955E+03	 1.51800E+03
 1.21053E+03	 1.49350E+03
 1.21150E+03	 1.48850E+03
 1.21248E+03	 1.48850E+03
 1.21345E+03	 1.52500E+03
 1.21442E+03	 1.49500E+03
 1.21540E+03	 1.49300E+03
 1.21637E+03	 1.50200E+03
 1.21734E+03	 1.49150E+03
 1.21832E+03	 1.51000E+03
 1.21929E+03	 1.52200E+03
 1.22026E+03	 1.51250E+03
 1.22124E+03	 1.50600E+03
 1.22221E+03	 1.51700E+03
 1.22318E+03	 1.47750E+03
 1.22415E+03	 1.47750E+03
 1.22512E+03	 1.51200E+03
 1.22610E+03	 1.47950E+03
 1.22707E+03	 1.49900E+03
 1.22804E+03	 1.51250E+03
 1.22901E+03	 1.51700E+03
 1.22998E+03	 1.53200E+03
 1.23096E+03	 1.49800E+03
 1.23193E+03	 1.50700E+03
 1.23290E+03	 1.50950E+03
 1.23387E+03	 1.51350E+03
 1.23484E+03	 1.50850E+03
 1.23581E+03	 1.50600E+03
 1.23678E+03	 1.53450E+03
 1.23775E+03	 1.54900E+03
 1.23872E+03	 1.55400E+03
 1.23969E+03	 1.54100E+03
 1.24066E+03	 1.53350E+03
 1.24163E+03	 1.52550E+03
 1.24260E+03	 1.56800E+03
 1.24357E+03	 1.53750E+03
 1.24454E+03	 1.57950E+03
 1.24551E+03	 1.56950E+03
 1.24648E+03	 1.55350E+03
 1.24745E+03	 1.57100E+03
 1.24842E+03	 1.58200E+03
 1.24939E+03	 1.54300E+03
 1.25036E+03	 1.54850E+03
 1.25133E+03	 1.52400E+03
 1.25230E+03	 1.55200E+03
 1.25326E+03	 1.52700E+03
 1.25423E+03	 1.53000E+03
 1.25520E+03	 1.53500E+03
 1.25617E+03	 1.53900E+03
 1.25714E+03	 1.52350E+03
 1.25811E+03	 1.53700E+03
 1.25907E+03	 1.51200E+03
 1.26004E+03	 1.50900E+03
 1.26101E+03	 1.52850E+03
 1.26198E+03	 1.51350E+03
 1.26294E+03	 1.50300E+03
 1.26391E+03	 1.50800E+03
 1.26488E+03	 1.48750E+03
 1.26585E+03	 1.52100E+03
 1.26681E+03	 1.50550E+03
 1.26778E+03	 1.47750E+03
 1.26875E+03	 1.48600E+03
 1.26971E+03	 1.47300E+03
 1.27068E+03	 1.46700E+03
 1.27164E+03	 1.48450E+03
 1.27261E+03	 1.45750E+03
 1.27358E+03	 1.48750E+03
 1.27454E+03	 1.48900E+03
 1.27551E+03	 1.46750E+03
 1.27647E+03	 1.47150E+03
 1.27744E+03	 1.49200E+03
 1.27840E+03	 1.49400E+03
 1.27937E+03	 1.50100E+03
 1.28034E+03	 1.46400E+03
 1.28130E+03	 1.49250E+03
 1.28227E+03	 1.50650E+03
 1.28323E+03	 1.50350E+03
 1.28419E+03	 1.46600E+03
 1.28516E+03	 1.49600E+03
 1.28612E+03	 1.47950E+03
 1.28709E+03	 1.48250E+03
 1.28805E+03	 1.48950E+03
 1.28902E+03	 1.50400E+03
 1.28998E+03	 1.45200E+03
 1.29094E+03	 1.49000E+03
 1.29191E+03	 1.47350E+03
 1.29287E+03	 1.50700E+03
 1.29383E+03	 1.48500E+03
 1.29480E+03	 1.53600E+03
 1.29576E+03	 1.50350E+03
 1.29672E+03	 1.48600E+03
 1.29769E+03	 1.48750E+03
 1.29865E+03	 1.48700E+03
 1.29961E+03	 1.47750E+03
 1.30058E+03	 1.49350E+03
 1.30154E+03	 1.49200E+03
 1.30250E+03	 1.47950E+03
 1.30346E+03	 1.48850E+03
 1.30442E+03	 1.49100E+03
 1.30539E+03	 1.47300E+03
 1.30635E+03	 1.50300E+03
 1.30731E+03	 1.48900E+03
 1.30827E+03	 1.49500E+03
 1.30923E+03	 1.51550E+03
 1.31019E+03	 1.48450E+03
 1.31116E+03	 1.49600E+03
 1.31212E+03	 1.49350E+03
 1.31308E+03	 1.47350E+03
 1.31404E+03	 1.49200E+03
 1.31500E+03	 1.48650E+03
 1.31596E+03	 1.48300E+03
 1.31692E+03	 1.47700E+03
 1.31788E+03	 1.49800E+03
 1.31884E+03	 1.49650E+03
 1.31980E+03	 1.51800E+03
 1.32076E+03	 1.49150E+03
 1.32172E+03	 1.47700E+03
 1.32268E+03	 1.48050E+03
 1.32364E+03	 1.49400E+03
 1.32460E+03	 1.49900E+03
 1.32556E+03	 1.47400E+03
 1.32652E+03	 1.50050E+03
 1.32748E+03	 1.51000E+03
 1.32844E+03	 1.49450E+03
 1.32940E+03	 1.49500E+03
 1.33036E+03	 1.47100E+03
 1.33131E+03	 1.49950E+03
 1.33227E+03	 1.49800E+03
 1.33323E+03	 1.49400E+03
 1.33419E+03	 1.49300E+03
 1.33515E+03	 1.49200E+03
 1.33611E+03	 1.50600E+03
 1.33706E+03	 1.48850E+03
 1.33802E+03	 1.50100E+03
 1.33898E+03	 1.49450E+03
 1.33994E+03	 1.51050E+03
 1.34089E+03	 1.52050E+03
 1.34185E+03	 1.50000E+03
 1.34281E+03	 1.48000E+03
 1.34377E+03	 1.50200E+03
 1.34472E+03	 1.52100E+03
 1.34568E+03	 1.51000E+03
 1.34664E+03	 1.52000E+03
 1.34759E+03	 1.50900E+03
 1.34855E+03	 1.52350E+03
 1.34951E+03	 1.48100E+03
 1.35046E+03	 1.50950E+03
 1.35142E+03	 1.49150E+03
 1.35238E+03	 1.48700E+03
 1.35333E+03	 1.49950E+03
 1.35429E+03	 1.48450E+03
 1.35524E+03	 1.51300E+03
 1.35620E+03	 1.51200E+03
 1.35715E+03	 1.49700E+03
 1.35811E+03	 1.49850E+03
 1.35906E+03	 1.48750E+03
 1.36002E+03	 1.49150E+03
 1.36097E+03	 1.51700E+03
 1.36193E+03	 1.50400E+03
 1.36288E+03	 1.52200E+03
 1.36384E+03	 1.53000E+03
 1.36479E+03	 1.53300E+03
 1.36575E+03	 1.51450E+03
 1.36670E+03	 1.53050E+03
 1.36766E+03	 1.52550E+03
 1.36861E+03	 1.50700E+03
 1.36956E+03	 1.51800E+03
 1.37052E+03	 1.49750E+03
 1.37147E+03	 1.51150E+03
 1.37243E+03	 1.49500E+03
 1.37338E+03	 1.48850E+03
 1.37433E+03	 1.50200E+03
 1.37529E+03	 1.51600E+03
 1.37624E+03	 1.49700E+03
 1.37719E+03	 1.48450E+03
 1.37814E+03	 1.52950E+03
 1.37910E+03	 1.49300E+03
 1.38005E+03	 1.50800E+03
 1.38100E+03	 1.50450E+03
 1.38195E+03	 1.50200E+03
 1.38291E+03	 1.49700E+03
 1.38386E+03	 1.53250E+03
 1.38481E+03	 1.50300E+03
 1.38576E+03	 1.50250E+03
 1.38671E+03	 1.52200E+03
 1.38767E+03	 1.51300E+03
 1.38862E+03	 1.50350E+03
 1.38957E+03	 1.47400E+03
 1.39052E+03	 1.49550E+03
 1.39147E+03	 1.52100E+03
 1.39242E+03	 1.50100E+03
 1.39337E+03	 1.51700E+03
 1.39433E+03	 1.51850E+03
 1.39528E+03	 1.49850E+03
 1.39623E+03	 1.50250E+03
 1.39718E+03	 1.52300E+03
 1.39813E+03	 1.52250E+03
 1.39908E+03	 1.50800E+03
 1.40003E+03	 1.51450E+03
 1.40098E+03	 1.49850E+03
 1.40193E+03	 1.50800E+03
 1.40288E+03	 1.51750E+03
 1.40383E+03	 1.53250E+03
 1.40478E+03	 1.51150E+03
 1.40573E+03	 1.50200E+03
 1.40668E+03	 1.50150E+03
 1.40762E+03	 1.48800E+03
 1.40857E+03	 1.51850E+03
 1.40952E+03	 1.50700E+03
 1.41047E+03	 1.50000E+03
 1.41142E+03	 1.48950E+03
 1.41237E+03	 1.50400E+03
 1.41332E+03	 1.50500E+03
 1.41427E+03	 1.52000E+03
 1.41521E+03	 1.51400E+03
 1.41616E+03	 1.51500E+03
 1.41711E+03	 1.50600E+03
 1.41806E+03	 1.52500E+03
 1.41901E+03	 1.53000E+03
 1.41995E+03	 1.52250E+03
 1.42090E+03	 1.52400E+03
 1.42185E+03	 1.53600E+03
 1.42280E+03	 1.51850E+03
 1.42374E+03	 1.52450E+03
 1.42469E+03	 1.52500E+03
 1.42564E+03	 1.51400E+03
 1.42658E+03	 1.53650E+03
 1.42753E+03	 1.52650E+03
 1.42848E+03	 1.53650E+03
 1.42942E+03	 1.52450E+03
 1.43037E+03	 1.54250E+03
 1.43132E+03	 1.50000E+03
 1.43226E+03	 1.53600E+03
 1.43321E+03	 1.53250E+03
 1.43416E+03	 1.53400E+03
 1.43510E+03	 1.50500E+03
 1.43605E+03	 1.51250E+03
 1.43699E+03	 1.51500E+03
 1.43794E+03	 1.50300E+03
 1.43888E+03	 1.48550E+03
 1.43983E+03	 1.50150E+03
 1.44077E+03	 1.51350E+03
 1.44172E+03	 1.49000E+03
 1.44266E+03	 1.50850E+03
 1.44361E+03	 1.49950E+03
 1.44455E+03	 1.50650E+03
 1.44550E+03	 1.51500E+03
 1.44644E+03	 1.52050E+03
 1.44739E+03	 1.54450E+03
 1.44833E+03	 1.51100E+03
 1.44927E+03	 1.49600E+03
 1.45022E+03	 1.48800E+03
 1.45116E+03	 1.52550E+03
 1.45211E+03	 1.54300E+03
 1.45305E+03	 1.54200E+03
 1.45399E+03	 1.52300E+03
 1.45494E+03	 1.49250E+03
 1.45588E+03	 1.51000E+03
 1.45682E+03	 1.51700E+03
 1.45777E+03	 1.52300E+03
 1.45871E+03	 1.50150E+03
 1.45965E+03	 1.51600E+03
 1.46059E+03	 1.52600E+03
 1.46154E+03	 1.52800E+03
 1.46248E+03	 1.53250E+03
 1.46342E+03	 1.49300E+03
 1.46436E+03	 1.50900E+03
 1.46531E+03	 1.47800E+03
 1.46625E+03	 1.52200E+03
 1.46719E+03	 1.50800E+03
 1.46813E+03	 1.51550E+03
 1.46907E+03	 1.48650E+03
 1.47001E+03	 1.50450E+03
 1.47096E+03	 1.50150E+03
 1.47190E+03	 1.49950E+03
 1.47284E+03	 1.52750E+03
 1.47378E+03	 1.48700E+03
 1.47472E+03	 1.52400E+03
 1.47566E+03	 1.54200E+03
 1.47660E+03	 1.52200E+03
 1.47754E+03	 1.50150E+03
 1.47848E+03	 1.53000E+03
 1.47942E+03	 1.51000E+03
 1.48036E+03	 1.54100E+03
 1.48130E+03	 1.49950E+03
 1.48224E+03	 1.52100E+03
 1.48318E+03	 1.53450E+03
 1.48412E+03	 1.51200E+03
 1.48506E+03	 1.54650E+03
 1.48600E+03	 1.56200E+03
 1.48694E+03	 1.54150E+03
 1.48788E+03	 1.52150E+03
 1.48882E+03	 1.50800E+03
 1.48976E+03	 1.53100E+03
 1.49070E+03	 1.53900E+03
 1.49164E+03	 1.50100E+03
 1.49258E+03	 1.53750E+03
 1.49352E+03	 1.53600E+03
 1.49445E+03	 1.52150E+03
 1.49539E+03	 1.51650E+03
 1.49633E+03	 1.54500E+03
 1.49727E+03	 1.52250E+03
 1.49821E+03	 1.54600E+03
 1.49915E+03	 1.56100E+03
 1.50008E+03	 1.54650E+03
 1.50102E+03	 1.57450E+03
 1.50196E+03	 1.56100E+03
 1.50290E+03	 1.54500E+03
 1.50383E+03	 1.52800E+03
 1.50477E+03	 1.54050E+03
 1.50571E+03	 1.57700E+03
 1.50665E+03	 1.56400E+03
 1.50758E+03	 1.54250E+03
 1.50852E+03	 1.54950E+03
 1.50946E+03	 1.55950E+03
 1.51039E+03	 1.55850E+03
 1.51133E+03	 1.54600E+03
 1.51227E+03	 1.52600E+03
 1.51320E+03	 1.57100E+03
 1.51414E+03	 1.53350E+03
 1.51507E+03	 1.59100E+03
 1.51601E+03	 1.55450E+03
 1.51695E+03	 1.54200E+03
 1.51788E+03	 1.55000E+03
 1.51882E+03	 1.58400E+03
 1.51975E+03	 1.54700E+03
 1.52069E+03	 1.59150E+03
 1.52162E+03	 1.53700E+03
 1.52256E+03	 1.54450E+03
 1.52349E+03	 1.50900E+03
 1.52443E+03	 1.51550E+03
 1.52536E+03	 1.53750E+03
 1.52630E+03	 1.53550E+03
 1.52723E+03	 1.54550E+03
 1.52817E+03	 1.52750E+03
 1.52910E+03	 1.50450E+03
 1.53004E+03	 1.55900E+03
 1.53097E+03	 1.52650E+03
 1.53190E+03	 1.51050E+03
 1.53284E+03	 1.54750E+03
 1.53377E+03	 1.52950E+03
 1.53471E+03	 1.52900E+03
 1.53564E+03	 1.52700E+03
 1.53657E+03	 1.54650E+03
 1.53751E+03	 1.56600E+03
 1.53844E+03	 1.54450E+03
 1.53937E+03	 1.56150E+03
 1.54031E+03	 1.52050E+03
 1.54124E+03	 1.55450E+03
 1.54217E+03	 1.50950E+03
 1.54310E+03	 1.51100E+03
 1.54404E+03	 1.54550E+03
 1.54497E+03	 1.51150E+03
 1.54590E+03	 1.51750E+03
 1.54683E+03	 1.54200E+03
 1.54777E+03	 1.51950E+03
 1.54870E+03	 1.53650E+03
 1.54963E+03	 1.54200E+03
 1.55056E+03	 1.52950E+03
 1.55149E+03	 1.52250E+03
 1.55243E+03	 1.54200E+03
 1.55336E+03	 1.53800E+03
 1.55429E+03	 1.53550E+03
 1.55522E+03	 1.53750E+03
 1.55615E+03	 1.52850E+03
 1.55708E+03	 1.55850E+03
 1.55801E+03	 1.55350E+03
 1.55894E+03	 1.51400E+03
 1.55987E+03	 1.52950E+03
 1.56080E+03	 1.52400E+03
 1.56174E+03	 1.53800E+03
 1.56267E+03	 1.52800E+03
 1.56360E+03	 1.55600E+03
 1.56453E+03	 1.52900E+03
 1.56546E+03	 1.55200E+03
 1.56639E+03	 1.54300E+03
 1.56732E+03	 1.51800E+03
 1.56825E+03	 1.51600E+03
 1.56918E+03	 1.50800E+03
 1.57010E+03	 1.53750E+03
 1.57103E+03	 1.54400E+03
 1.57196E+03	 1.54600E+03
 1.57289E+03	 1.53000E+03
 1.57382E+03	 1.53800E+03
 1.57475E+03	 1.56600E+03
 1.57568E+03	 1.55700E+03
 1.57661E+03	 1.53550E+03
 1.57754E+03	 1.53450E+03
 1.57846E+03	 1.53700E+03
 1.57939E+03	 1.53600E+03
 1.58032E+03	 1.54200E+03
 1.58125E+03	 1.52700E+03
 1.58218E+03	 1.55250E+03
 1.58311E+03	 1.55450E+03
 1.58403E+03	 1.54400E+03
 1.58496E+03	 1.52150E+03
 1.58589E+03	 1.54700E+03
 1.58682E+03	 1.53850E+03
 1.58774E+03	 1.56000E+03
 1.58867E+03	 1.53350E+03
 1.58960E+03	 1.55350E+03
 1.59052E+03	 1.55100E+03
 1.59145E+03	 1.57000E+03
 1.59238E+03	 1.56200E+03
 1.59331E+03	 1.57150E+03
 1.59423E+03	 1.56800E+03
 1.59516E+03	 1.54650E+03
 1.59608E+03	 1.56300E+03
 1.59701E+03	 1.55000E+03
 1.59794E+03	 1.52750E+03
 1.59886E+03	 1.55350E+03
 1.59979E+03	 1.56050E+03
 1.60072E+03	 1.53650E+03
 1.60164E+03	 1.55300E+03
 1.60257E+03	 1.54950E+03
 1.60349E+03	 1.56200E+03
 1.60442E+03	 1.55250E+03
 1.60534E+03	 1.55300E+03
 1.60627E+03	 1.55300E+03
 1.60719E+03	 1.56400E+03
